Data from dark3s10a1_V78500241_8.txt Node
Date: Fri Aug 28 12:08:51 CST 2020
User: usil
Spectrometer: V785-0024
Trigger mode: 0
Integration Time (sec): 3.000000E0
Scans to average: 10
Nonlinearity correction enabled: false
Boxcar width: 0
Storing dark spectrum: false
XAxis mode: Wavelengths
Number of Pixels in Spectrum: 1024
>>>>>Begin Spectral Data<<<<<
801.071	7808.4
801.214	7741.6
801.356	7568.5
801.499	7618.7
801.641	7520.4
801.783	7657.7
801.926	7965.1
802.068	7840.7
802.211	7943
802.353	8066.2
802.496	7773.2
802.638	7989.9
802.78	8067.6
802.923	8235.4
803.065	7881.9
803.208	7650.7
803.35	7738.6
803.492	7801.4
803.635	7838.4
803.777	7272.6
803.919	7788
804.061	9157.7
804.204	7907.1
804.346	7760.1
804.488	7451.4
804.63	7850.9
804.773	7533.6
804.915	7631
805.057	8109.2
805.199	7594.1
805.341	7774.8
805.483	7922.6
805.626	7926.4
805.768	7797.8
805.91	8119
806.052	8149.6
806.194	7905.1
806.336	8610
806.478	7939
806.62	7794.1
806.762	7812
806.904	8094.2
807.046	8423.3
807.188	7825
807.33	7632.5
807.472	7954
807.614	7676.6
807.756	8039.5
807.898	7668.2
808.04	7688.4
808.182	7875.5
808.324	7754.4
808.465	7634.9
808.607	7531.9
808.749	7323.9
808.891	7430
809.033	7877.6
809.174	7918.2
809.316	7605
809.458	7694.2
809.6	7247
809.741	7213.5
809.883	7227.8
810.025	7618.8
810.166	7459.3
810.308	7454.9
810.45	7539.6
810.591	7327.1
810.733	7229
810.875	7463.2
811.016	7414
811.158	7324.3
811.299	7444
811.441	7748.2
811.582	7645
811.724	7461.2
811.865	7418.9
812.007	7682.3
812.148	7523.3
812.29	7525.8
812.431	7656.9
812.573	7766.4
812.714	7823
812.855	8054.1
812.997	7940.3
813.138	8326.2
813.279	7925.7
813.421	7806.8
813.562	7793
813.703	7623
813.845	7809.9
813.986	7450.1
814.127	7249
814.268	7411.5
814.41	7539.2
814.551	7420.2
814.692	7923.9
814.833	7544.7
814.974	7630.6
815.115	7815.8
815.256	7443.8
815.397	7455.4
815.539	7582
815.68	7258.8
815.821	7467
815.962	8055.9
816.103	7790.4
816.244	7581
816.385	7634.3
816.526	8017.1
816.666	7643.8
816.807	7238.7
816.948	7683.2
817.089	7750
817.23	7480.3
817.371	7308.8
817.512	7462.3
817.653	7631
817.793	7459
817.934	7531.7
818.075	8035.4
818.216	7877.5
818.356	7941.1
818.497	7608.2
818.638	7341.1
818.778	7422
818.919	7356.9
819.06	7260.4
819.2	7551.1
819.341	7420.9
819.481	7384.7
819.622	7709.4
819.762	8272.8
819.903	7989
820.043	7666
820.184	7635.4
820.324	7582.7
820.465	7856.1
820.605	7836.8
820.746	7958.1
820.886	7728
821.026	8539.6
821.167	8254.8
821.307	8632.6
821.447	8654.2
821.588	8440.6
821.728	8405.1
821.868	8409.8
822.008	8136.7
822.149	8363.8
822.289	8612.2
822.429	8091.8
822.569	8057.8
822.709	8266.4
822.849	7893.4
822.99	8062.6
823.13	8244.7
823.27	8440
823.41	8166.4
823.55	8343.6
823.69	8190.3
823.83	8372.9
823.97	8139.3
824.11	7885.4
824.25	7774.5
824.389	8026.2
824.529	8140.9
824.669	7962.4
824.809	8351.2
824.949	8504
825.089	8435.2
825.228	8341.4
825.368	7784.2
825.508	7732
825.648	7868.4
825.787	7974.1
825.927	8077.9
826.067	7917.7
826.206	7809.8
826.346	8135.4
826.485	8093
826.625	8232.6
826.765	8917.7
826.904	8615.9
827.044	7905.1
827.183	7804.9
827.323	7546.7
827.462	7832.3
827.601	7627.1
827.741	7627.8
827.88	7849.3
828.02	7535.4
828.159	7855.4
828.298	8017.5
828.437	8286.9
828.577	8003.8
828.716	8544
828.855	8096.9
828.994	7643
829.134	7642.8
829.273	7712.4
829.412	7546.8
829.551	7433.8
829.69	7556.3
829.829	7894.2
829.968	8312.8
830.107	7889
830.246	7928.9
830.385	7642.9
830.524	7533.1
830.663	7278.8
830.802	7127.5
830.941	6920.3
831.08	6905.4
831.219	7184.2
831.357	7163.5
831.496	7991.1
831.635	7041.7
831.774	6892.8
831.913	6961.6
832.051	6640.2
832.19	6624.2
832.329	6890.5
832.467	6618.9
832.606	6437.1
832.744	6698.8
832.883	6735.9
833.022	6665.7
833.16	6864.7
833.299	6925.1
833.437	6983.8
833.576	7052.7
833.714	7055.5
833.852	7274.5
833.991	7264.9
834.129	7393.2
834.267	7381.1
834.406	7333
834.544	7387
834.682	7520.3
834.821	7538.9
834.959	8509
835.097	7562.4
835.235	8091.3
835.373	7845.9
835.511	7850.5
835.65	7674.3
835.788	8028.2
835.926	7472
836.064	7368.3
836.202	7427.4
836.34	8235.4
836.478	8287.2
836.615	8048.4
836.753	8279.7
836.891	8503.7
837.029	8247.3
837.167	8217.1
837.305	8081.3
837.443	7938.6
837.58	7846.3
837.718	8316.5
837.856	8116.1
837.993	7989.2
838.131	8239.3
838.269	8239.8
838.406	8261.8
838.544	8299.5
838.681	7791.9
838.819	7707
838.956	7310.9
839.094	7398.1
839.231	7618.8
839.369	7986.3
839.506	9010.9
839.643	8532.9
839.781	7893.4
839.918	7752.6
840.055	8051
840.193	8044.9
840.33	7998.1
840.467	8152.6
840.604	8360.8
840.742	9537.1
840.879	8074.5
841.016	8168
841.153	8217.6
841.29	8893.2
841.427	8610.4
841.564	8682.7
841.701	8641.4
841.838	8385.1
841.975	8293.3
842.112	8410.2
842.249	8051.3
842.385	7988.9
842.522	9132.7
842.659	8144.5
842.796	7980.6
842.933	7996.6
843.069	8082.8
843.206	7900.5
843.343	8256.8
843.479	8131.1
843.616	8248.7
843.752	7518.4
843.889	7542.4
844.025	8447.1
844.162	7540.3
844.298	8100.5
844.435	7716.5
844.571	7671.3
844.708	8159
844.844	8355
844.98	8487.8
845.117	8514
845.253	8012
845.389	7931.9
845.525	8146
845.661	8129.5
845.798	7994
845.934	8209.1
846.07	8062.7
846.206	8508.4
846.342	8805.4
846.478	8573
846.614	8210
846.75	8087.9
846.886	7952.1
847.022	8601
847.158	8335.4
847.294	8400.7
847.429	8524
847.565	8341.3
847.701	10078.5
847.837	7986.3
847.972	7911.2
848.108	8601.1
848.244	8517.2
848.379	7886.2
848.515	7622.1
848.65	7631.7
848.786	7841
848.921	7911.7
849.057	8231
849.192	8328.7
849.328	8123.2
849.463	8205.8
849.598	8060.1
849.734	8000.4
849.869	7807.2
850.004	7599
850.14	7796.5
850.275	7705.2
850.41	7582.8
850.545	7667.1
850.68	7732.2
850.815	7818
850.95	7834.1
851.085	8543.6
851.22	8227.5
851.355	8106.5
851.49	7937.2
851.625	7884.6
851.76	7929.3
851.895	7716.3
852.03	7699.9
852.165	7963.9
852.299	8170
852.434	8523.9
852.569	8163.6
852.703	8340.5
852.838	8526.2
852.973	8872.4
853.107	8797.2
853.242	8404.6
853.376	8267.5
853.511	7806.5
853.645	8140.7
853.78	8783.8
853.914	8301.4
854.048	8292.3
854.183	8138.9
854.317	8444
854.451	8930.2
854.585	8326.5
854.72	8148.4
854.854	8733.1
854.988	8046.7
855.122	8450.1
855.256	7826.2
855.39	8236.5
855.524	8466.4
855.658	8353.8
855.792	8406.3
855.926	8463
856.06	8454.4
856.194	8582.3
856.327	8218.3
856.461	8137.9
856.595	8213.5
856.729	8192.5
856.862	8594.2
856.996	8237.4
857.13	8550.4
857.263	8607.8
857.397	8628.9
857.53	8224.1
857.664	8415
857.797	8532.7
857.931	8502.2
858.064	8384.3
858.197	8689.4
858.331	8253.4
858.464	8012.1
858.597	7865.3
858.731	8243.8
858.864	8111.2
858.997	8139
859.13	8311
859.263	8346.3
859.396	8575.3
859.529	8150
859.662	8201.6
859.795	7990.9
859.928	8308.2
860.061	8714.2
860.194	8755.6
860.327	8375
860.46	8154.4
860.592	8495.7
860.725	8527
860.858	8531.8
860.99	8040.6
861.123	7978.2
861.256	7938
861.388	8209.4
861.521	14067.5
861.653	7884.4
861.786	7779.2
861.918	7844.4
862.05	7958.8
862.183	8213.8
862.315	8259.9
862.447	8395.9
862.58	8187.3
862.712	7786.6
862.844	7563.2
862.976	7986.5
863.108	7848.1
863.24	11782.2
863.372	7559.5
863.504	7845.2
863.636	7736.6
863.768	8049.2
863.9	7907.3
864.032	7686.2
864.164	7711.5
864.296	7940.1
864.428	8069.2
864.559	8113.4
864.691	8118.4
864.823	8061.3
864.954	8007.8
865.086	8095.5
865.217	7916.3
865.349	7806.1
865.48	7922.5
865.612	8071.8
865.743	8560.1
865.875	7922.4
866.006	7749.6
866.137	7917.7
866.269	7740.4
866.4	7682.1
866.531	7630.9
866.662	7562.1
866.793	7592.4
866.924	7618.9
867.055	7786.2
867.186	7677
867.317	7515.7
867.448	7387.8
867.579	7631
867.71	7538.4
867.841	7450.6
867.972	7708.5
868.103	7613.4
868.233	7631.9
868.364	7632.1
868.495	7723.7
868.625	8168.2
868.756	8611.4
868.886	7886.4
869.017	8113.8
869.147	8615.1
869.278	8352
869.408	8007.2
869.539	7916.4
869.669	8303.8
869.799	8021.5
869.929	8156.5
870.06	8179.1
870.19	8924.8
870.32	8657.8
870.45	8748
870.58	8965
870.71	9041.6
870.84	9003.2
870.97	8633.1
871.1	8440.1
871.23	9222.9
871.36	9202.9
871.489	8824.8
871.619	9007.3
871.749	9003.7
871.879	9044.4
872.008	9235.9
872.138	8768.4
872.267	8569.5
872.397	8311
872.526	8145.6
872.656	7854.4
872.785	8062.2
872.915	8531.2
873.044	8720.6
873.173	8392.6
873.303	8518.2
873.432	8552.8
873.561	8648.3
873.69	8274.3
873.819	8124.3
873.948	8305.4
874.077	8200.4
874.206	8026.7
874.335	8061.2
874.464	8482.1
874.593	8955.1
874.722	8589.4
874.851	8977.4
874.979	8833.3
875.108	8817.6
875.237	8467.6
875.365	8167.9
875.494	8255
875.623	8634.5
875.751	8019.8
875.88	8238.1
876.008	8390.7
876.136	8388.5
876.265	8764.3
876.393	9127.9
876.521	8930.6
876.65	8803.4
876.778	8671.5
876.906	8362.6
877.034	8275.1
877.162	8370.2
877.29	8253.7
877.418	8456.6
877.546	8411
877.674	8532.6
877.802	8397.9
877.93	8287
878.058	8167
878.185	8095.2
878.313	8344.2
878.441	8345.6
878.568	7944
878.696	8158.8
878.824	8438.2
878.951	8615.3
879.079	8987
879.206	9378.3
879.333	8918.4
879.461	8711.1
879.588	8805.2
879.715	9151.2
879.842	9890.6
879.97	9011.8
880.097	8278.9
880.224	8208.9
880.351	8362.8
880.478	8386.1
880.605	8432.7
880.732	8389.9
880.859	9396
880.986	8613
881.112	8784.5
881.239	8541.3
881.366	8189.6
881.493	8034
881.619	7861.9
881.746	7974.1
881.872	8114.8
881.999	8116.1
882.125	8243.5
882.252	8569.9
882.378	8687.5
882.505	8998.3
882.631	8593.7
882.757	8270.3
882.883	8588.3
883.01	8458.8
883.136	8343.6
883.262	8155
883.388	8167.8
883.514	8631.3
883.64	8726.1
883.766	8881.9
883.892	8439
884.018	8563.9
884.143	8994.8
884.269	9514.6
884.395	8543.3
884.52	8251.8
884.646	8367.7
884.772	8336.3
884.897	8181.9
885.023	8450.1
885.148	8918.8
885.274	9172.8
885.399	9059.6
885.524	8759.4
885.65	8862.4
885.775	8902.4
885.9	8874.8
886.025	9168.7
886.15	8974.9
886.275	8694
886.4	8479.3
886.525	8821.4
886.65	8618.2
886.775	8714.1
886.9	9369
887.025	9590.7
887.149	8983.5
887.274	8534.7
887.399	8484.7
887.523	8491.6
887.648	8404
887.773	8426.4
887.897	9007.9
888.021	9111.4
888.146	8795.5
888.27	9528.7
888.395	9656.2
888.519	9123.9
888.643	9081.7
888.767	9166.1
888.891	8754.9
889.015	8518.9
889.139	8751.4
889.263	8573.7
889.387	9074
889.511	9306.8
889.635	9187.4
889.759	8688.6
889.883	8688.3
890.006	8866.9
890.13	9293.9
890.254	8705.2
890.377	8868.6
890.501	8438.1
890.624	8412.4
890.748	8728.2
890.871	8260.7
890.995	8126.7
891.118	7972.6
891.241	8396.1
891.364	8488.5
891.488	8783
891.611	8411.6
891.734	8467
891.857	8577.9
891.98	8463
892.103	8847.4
892.226	8656.4
892.349	8827.1
892.471	8174.3
892.594	8570.4
892.717	8696.3
892.839	8570.6
892.962	8780
893.085	9047.7
893.207	8746.1
893.33	8298.3
893.452	8377.8
893.575	8852.9
893.697	8557
893.819	9140.2
893.941	9322
894.064	9332.1
894.186	8721
894.308	8573.8
894.43	9141.9
894.552	9533.7
894.674	9406.3
894.796	8674.9
894.918	8885.3
895.04	8747
895.161	9066.8
895.283	9047.5
895.405	8687.4
895.526	8913.1
895.648	8995.6
895.769	9066.7
895.891	9184.4
896.012	9361.7
896.134	9153.2
896.255	8926.2
896.376	8813.2
896.498	8906.2
896.619	8972.5
896.74	8834.2
896.861	9097.7
896.982	9840.3
897.103	10246
897.224	9543.5
897.345	9231.7
897.466	9060
897.587	9261.6
897.708	9549.7
897.828	9304.2
897.949	9144.1
898.07	8807
898.19	8957.7
898.311	9502.9
898.431	8973.3
898.552	9187.4
898.672	9517.6
898.792	9455.2
898.913	9306.8
899.033	8929
899.153	8590
899.273	8386.5
899.393	8583.3
899.513	8770.5
899.633	8669.3
899.753	8824.5
899.873	8651.4
899.993	8969.5
900.113	8809.6
900.232	8943.2
900.352	8829.8
900.472	8619
900.591	8313.5
900.711	8476.4
900.83	8364.1
900.95	8897.7
901.069	9126.4
901.189	8699.1
901.308	8296.4
901.427	8217.2
901.546	8392.7
901.665	8701.6
901.784	8761.4
901.904	8374.3
902.023	8251.8
902.141	7888.9
902.26	7910.9
902.379	8316.5
902.498	8094.8
902.617	8073.5
902.735	8541.1
902.854	8499.1
902.973	8674.6
903.091	8036.9
903.21	8020
903.328	8224.5
903.446	8219.3
903.565	8088.6
903.683	8365.9
903.801	8230.3
903.919	8562
904.038	8637
904.156	8246.9
904.274	8626.2
904.392	8561.5
904.51	8633.4
904.627	8821.5
904.745	8958
904.863	9158.9
904.981	8504.2
905.098	8380.1
905.216	8604.9
905.334	8692.4
905.451	8768.2
905.569	8746.5
905.686	9073
905.803	9050.9
905.921	8648.2
906.038	8984.9
906.155	8869
906.272	8512.5
906.389	8692.8
906.506	8550.4
906.623	8531
906.74	8528.4
906.857	8347.3
906.974	8565.8
907.091	9183.7
907.208	9466.8
907.324	9116
907.441	8865
907.557	8514.2
907.674	8612.2
907.79	8380.5
907.907	8506.7
908.023	8848.5
908.139	8850.6
908.256	8797
908.372	8862.1
908.488	8822.3
908.604	8643.1
908.72	8462.5
908.836	8788
908.952	8752.6
909.068	8760.1
909.184	9228.6
909.3	8942.4
909.415	9159.3
909.531	9426.6
909.647	8583.8
909.762	8714.4
909.878	8670.1
909.993	8965.7
910.108	8863.2
910.224	8754.2
910.339	9163.4
910.454	8869
910.57	8689.4
910.685	8539.6
910.8	9750.5
910.915	9301.2
911.03	9124
911.145	8650.2
911.259	8602
911.374	8787.3
911.489	8508
911.604	8517.5
911.718	8142
911.833	8378.2
911.947	7987.8
912.062	7813.3
912.176	8241.2
912.291	8364.9
912.405	8362.5
912.519	9030.3
912.633	9232.7
912.748	8801.5
912.862	8694.7
912.976	8353.8
913.09	8012.6
913.204	8392.1
913.318	8490.5
913.431	8762.2
913.545	8925.8
913.659	9147.6
913.772	8942.4
913.886	8650.3
914	8447.7
914.113	8855.3
914.226	9026.2
914.34	8967.2
914.453	8458.5
914.566	9091.1
914.68	8621.4
914.793	8761.6
914.906	8287.7
915.019	8243
915.132	8079.2
915.245	8426.4
915.358	8487.3
915.47	8539.6
915.583	8601
915.696	8688.7
915.809	9082.8
915.921	9271.8
916.034	8706.7
916.146	8730.5
916.259	8597.8
916.371	8977.1
916.483	8990.8
916.595	8831.4
916.708	8927.3
916.82	8916.6
916.932	8738.2
917.044	8925.8
917.156	9061.5
917.268	8679.9
917.38	8756.8
917.491	8742.1
917.603	8942.4
917.715	9034.5
917.826	9317
917.938	8915.8
918.049	8643.4
918.161	9095
918.272	9408.6
918.384	9513.4
918.495	9153.6
918.606	8737.4
918.717	8605.4
918.828	9021.4
918.939	9074.9
919.05	8803.2
919.161	9186.6
919.272	8367.8
919.383	8580.5
919.494	9316.4
919.604	10190
919.715	9497.7
919.826	9271.7
919.936	9638.2
920.047	10147.7
920.157	9707.6
920.267	10797.6
920.378	10153.9
920.488	10013
920.598	11106.9
920.708	11504.9
920.818	11178.9
920.928	11250.4
921.038	12108.2
921.148	11864.4
921.258	10831.4
921.368	10743.2
921.477	10184.6
921.587	10090.3
921.697	9574.4
921.806	9970.9
921.916	9549.3
922.025	8894.9
922.134	8818.4
922.244	8742.3
922.353	9034.5
922.462	8619.7
922.571	8620.6
922.68	8185.7
922.789	8142
922.898	8442
923.007	8068.2
923.116	8440
923.224	8371.7
923.333	8423.5
923.442	8206.5
923.55	8138.4
923.659	8233.9
923.767	8501.6
923.876	8146.5
923.984	8468.3
924.092	8131.7
924.201	8428.4
924.309	8463.1
924.417	8581.4
924.525	8310.3
924.633	8478.2
924.741	13105.1
924.849	8065.6
924.956	8640.4
925.064	8110.7
925.172	8035.7
925.279	8054.3
925.387	8437.1
925.494	8343.1
925.602	8874.5
925.709	8870.9
925.816	8418.8
925.924	8586.6
926.031	8900.5
926.138	8801.8
926.245	9118.6
926.352	8569
926.459	9072.4
926.566	9144.4
926.673	8797.6
926.779	8624
926.886	8636.5
926.993	8301.5
927.099	8190.6
927.206	8195.8
927.312	8132.4
927.419	8555.9
927.525	8440.2
927.631	8602.3
927.737	8329.6
927.843	8186
927.95	7942.9
928.056	8227.1
928.162	8323.4
928.267	8480.3
928.373	11798.6
928.479	8746
928.585	8107.6
928.69	8600.7
928.796	8631.5
928.901	8365.9
929.007	8020.2
929.112	8467.3
929.218	8374.9
929.323	8438.7
929.428	8217.2
929.533	8945.3
929.638	8220.1
929.743	8549.2
929.848	8628.8
929.953	8527
930.058	8262.1
930.163	7856.9
930.267	8062
930.372	8554.3
930.477	7987.2
930.581	8802
930.685	8492.4
930.79	8077.9
930.894	8373.4
930.998	8274.2
931.103	9207.2
931.207	7858.1
931.311	7702.5
931.415	7676.6
931.519	7273.2
931.623	7618.3
