Data from dark3s10a1_V78500241_15.txt Node
Date: Fri Aug 28 12:12:22 CST 2020
User: usil
Spectrometer: V785-0024
Trigger mode: 0
Integration Time (sec): 3.000000E0
Scans to average: 10
Nonlinearity correction enabled: false
Boxcar width: 0
Storing dark spectrum: false
XAxis mode: Wavelengths
Number of Pixels in Spectrum: 1024
>>>>>Begin Spectral Data<<<<<
801.071	7807
801.214	7715.1
801.356	7550.4
801.499	7608.1
801.641	7489.8
801.783	7638.9
801.926	7925.7
802.068	7826.5
802.211	7924.8
802.353	8021.7
802.496	7738.6
802.638	7970
802.78	8037.2
802.923	8201.2
803.065	7844.8
803.208	7635.9
803.35	7694.5
803.492	7770.8
803.635	7833.3
803.777	7235
803.919	7754.3
804.061	9159.3
804.204	7899.5
804.346	7729.4
804.488	7430.5
804.63	7864.1
804.773	7498.7
804.915	7575.8
805.057	8101.3
805.199	7573.1
805.341	7746.6
805.483	7901
805.626	7900.6
805.768	7786.1
805.91	8053.6
806.052	8133.2
806.194	7883.2
806.336	8572.8
806.478	7927.7
806.62	7775.5
806.762	7794.5
806.904	8046.9
807.046	8404.9
807.188	7791.5
807.33	7612.3
807.472	7914
807.614	7640.4
807.756	8051.7
807.898	7662.2
808.04	7676
808.182	7864.6
808.324	7742.8
808.465	7630.2
808.607	7504.9
808.749	7298.4
808.891	7393.1
809.033	7858.6
809.174	7890.9
809.316	7586.9
809.458	7664.6
809.6	7231.5
809.741	7172.2
809.883	7182.5
810.025	7589.4
810.166	7444.6
810.308	7415.4
810.45	7494
810.591	7312.4
810.733	7217.4
810.875	7436.1
811.016	7395.8
811.158	7313.8
811.299	7417.4
811.441	7711.5
811.582	7592.9
811.724	7406.4
811.865	7395.5
812.007	7663.7
812.148	7505
812.29	7486
812.431	7629.5
812.573	7764.8
812.714	7809.7
812.855	8041.4
812.997	7926.7
813.138	8308.2
813.279	7912.2
813.421	7776.6
813.562	7760.3
813.703	7609.1
813.845	7790
813.986	7387.5
814.127	7221.6
814.268	7367.6
814.41	7513.4
814.551	7392.4
814.692	7917.1
814.833	7515.7
814.974	7599
815.115	7794.9
815.256	7426.9
815.397	7414.8
815.539	7567.1
815.68	7222.5
815.821	7442.7
815.962	8048.2
816.103	7756.2
816.244	7546.9
816.385	7615.2
816.526	7986.2
816.666	7619.6
816.807	7212.4
816.948	7670.5
817.089	7737.8
817.23	7450.1
817.371	7293.6
817.512	7430.2
817.653	7588.6
817.793	7442.6
817.934	7516.3
818.075	8008.2
818.216	7880.5
818.356	7919
818.497	7581.5
818.638	7335.1
818.778	7412.6
818.919	7351.3
819.06	7244.5
819.2	7539.2
819.341	7396.6
819.481	7362.3
819.622	7685.5
819.762	8229.4
819.903	7965.8
820.043	7659
820.184	7618.8
820.324	7561.6
820.465	7844.5
820.605	7815.5
820.746	7929.6
820.886	7680.7
821.026	8521.6
821.167	8218
821.307	8592
821.447	8658.3
821.588	8401.7
821.728	8370.1
821.868	8376.5
822.008	8109.3
822.149	8347.1
822.289	8587.9
822.429	8058.7
822.569	8031.6
822.709	8259.7
822.849	7873.1
822.99	8054.1
823.13	8195.5
823.27	8416.4
823.41	8151.6
823.55	8320.9
823.69	8166.5
823.83	8333.4
823.97	8094.4
824.11	7867.3
824.25	7777.9
824.389	8006.8
824.529	8109.1
824.669	7904.6
824.809	8302.3
824.949	8484
825.089	8417.4
825.228	8335.2
825.368	7738.2
825.508	7740.5
825.648	7824.9
825.787	7945.5
825.927	8068.8
826.067	7892.7
826.206	7781.1
826.346	8093.3
826.485	8053.5
826.625	8209.6
826.765	8872.3
826.904	8619.4
827.044	7881.5
827.183	7797.5
827.323	7503.9
827.462	7810.9
827.601	7615.8
827.741	7608
827.88	7858.4
828.02	7509.7
828.159	7820.4
828.298	8003.8
828.437	8269.3
828.577	7946.4
828.716	8483.1
828.855	8061.1
828.994	7609.7
829.134	7643.6
829.273	7651.9
829.412	7503.4
829.551	7398
829.69	7526.2
829.829	7872.2
829.968	8294
830.107	7870.3
830.246	7903.5
830.385	7606.5
830.524	7497
830.663	7301
830.802	7106.7
830.941	6851.7
831.08	6895.5
831.219	7150.5
831.357	7151.2
831.496	7969.2
831.635	7024.1
831.774	6867
831.913	6941.9
832.051	6593.9
832.19	6596.9
832.329	6872.7
832.467	6566.7
832.606	6388.6
832.744	6693.8
832.883	6693.2
833.022	6676.4
833.16	6844.8
833.299	6918.7
833.437	6992.6
833.576	7035.6
833.714	7070.8
833.852	7224.2
833.991	7232.6
834.129	7392.5
834.267	7389.1
834.406	7265.7
834.544	7390.9
834.682	7509.8
834.821	7499.2
834.959	8464.7
835.097	7551.8
835.235	8042.9
835.373	7817.3
835.511	7825.9
835.65	7638.3
835.788	8011.1
835.926	7455.6
836.064	7357.8
836.202	7416.1
836.34	8222.1
836.478	8307.4
836.615	8025.9
836.753	8254.4
836.891	8445.3
837.029	8202.8
837.167	8150
837.305	8036.3
837.443	7909
837.58	7837.1
837.718	8288.4
837.856	8084.5
837.993	7968.9
838.131	8218.3
838.269	8216.9
838.406	8285.7
838.544	8272
838.681	7790.2
838.819	7685.8
838.956	7286.6
839.094	7392
839.231	7597.1
839.369	7984.9
839.506	9005.6
839.643	8499.9
839.781	7855
839.918	7740.4
840.055	8015.7
840.193	8028.8
840.33	7997.3
840.467	8109
840.604	8315.7
840.742	9532.1
840.879	8053.6
841.016	8154.3
841.153	8199.3
841.29	8869.7
841.427	8599.9
841.564	8662.1
841.701	8628.1
841.838	8372.1
841.975	8272.4
842.112	8385
842.249	8040.7
842.385	7990.8
842.522	9152
842.659	8133.5
842.796	7944.2
842.933	7983.3
843.069	8057.5
843.206	7918.9
843.343	8253
843.479	8115.6
843.616	8224.1
843.752	7478
843.889	7536.5
844.025	8436.3
844.162	7543.4
844.298	8062.5
844.435	7680.5
844.571	7618.4
844.708	8141.2
844.844	8336
844.98	8477.5
845.117	8478.9
845.253	7999.8
845.389	7898.3
845.525	8127.8
845.661	8112.6
845.798	7977.3
845.934	8200.5
846.07	8038.4
846.206	8498
846.342	8763.3
846.478	8567.6
846.614	8194.8
846.75	8064.9
846.886	7926.9
847.022	8551.7
847.158	8272.7
847.294	8394.3
847.429	8491.9
847.565	8313.6
847.701	10073.5
847.837	7963.6
847.972	7878.3
848.108	8564.9
848.244	8460.8
848.379	7867.9
848.515	7612.2
848.65	7633.9
848.786	7805.2
848.921	7890
849.057	8196.3
849.192	8299.9
849.328	8125.4
849.463	8175.3
849.598	8009.2
849.734	7979.4
849.869	7809
850.004	7574.6
850.14	7752.3
850.275	7688
850.41	7571.2
850.545	7635.8
850.68	7661.4
850.815	7820.9
850.95	7823.1
851.085	8508.6
851.22	8206
851.355	8090.2
851.49	7910
851.625	7853.9
851.76	7914.3
851.895	7672.7
852.03	7651.3
852.165	7961
852.299	8142.4
852.434	8534.2
852.569	8122.3
852.703	8340.9
852.838	8492.8
852.973	8820.6
853.107	8791
853.242	8393.2
853.376	8247.4
853.511	7784.6
853.645	8126.8
853.78	8767.4
853.914	8242.3
854.048	8270.9
854.183	8145.3
854.317	8442.1
854.451	8910.8
854.585	8304
854.72	8156.1
854.854	8720.9
854.988	7998.1
855.122	8409.8
855.256	7841.1
855.39	8208.9
855.524	8460.7
855.658	8315.9
855.792	8403.3
855.926	8425.3
856.06	8425
856.194	8585.3
856.327	8210.3
856.461	8098.1
856.595	8201
856.729	8174.6
856.862	8571
856.996	8215.1
857.13	8518.3
857.263	8580.6
857.397	8619.4
857.53	8196.2
857.664	8393.4
857.797	8504.4
857.931	8506
858.064	8329.2
858.197	8624.8
858.331	8258.3
858.464	7996.2
858.597	7807.5
858.731	8209.6
858.864	8084.9
858.997	8090.4
859.13	8281.5
859.263	8305.5
859.396	8525.7
859.529	8087.9
859.662	8181.5
859.795	7953.3
859.928	8273.1
860.061	8686.4
860.194	8735.8
860.327	8344.4
860.46	8127.1
860.592	8481.4
860.725	8505.2
860.858	8497.1
860.99	8021.4
861.123	7942.9
861.256	7916.7
861.388	8184.9
861.521	15266.1
861.653	7869.6
861.786	7762.7
861.918	7811.6
862.05	7953.2
862.183	8165.2
862.315	8269.2
862.447	8367.1
862.58	8175.1
862.712	7741.1
862.844	7531.5
862.976	7946.9
863.108	7839.2
863.24	11726.4
863.372	7535.4
863.504	7808.7
863.636	7699.6
863.768	8025.1
863.9	7886.3
864.032	7634.4
864.164	7688
864.296	7892.6
864.428	8033.9
864.559	8110.8
864.691	8089.6
864.823	8047.9
864.954	8000
865.086	8040.6
865.217	7891.9
865.349	7798.1
865.48	7915.8
865.612	8032.1
865.743	8528.1
865.875	7885.8
866.006	7697.1
866.137	7912.9
866.269	7719.2
866.4	7660.7
866.531	7630.5
866.662	7529.8
866.793	7549.9
866.924	7590.7
867.055	7786.7
867.186	7640.4
867.317	7504.7
867.448	7347.6
867.579	7619.4
867.71	7498.9
867.841	7429.4
867.972	7653.1
868.103	7578.8
868.233	7611.5
868.364	7601.7
868.495	7681.9
868.625	8152.8
868.756	8579.1
868.886	7865.8
869.017	8094
869.147	8574.9
869.278	8309.6
869.408	7991.3
869.539	7898.7
869.669	8275.8
869.799	8009
869.929	8134.2
870.06	8167.8
870.19	8915
870.32	8615.6
870.45	8712.4
870.58	8958
870.71	9036.3
870.84	8954.6
870.97	8601.1
871.1	8420.8
871.23	9212.6
871.36	9176.8
871.489	8786.4
871.619	8965.8
871.749	8969
871.879	9018
872.008	9208.1
872.138	8746.8
872.267	8546.8
872.397	8270.5
872.526	8116.1
872.656	7828.9
872.785	8025.2
872.915	8496.1
873.044	8682.1
873.173	8360.1
873.303	8498
873.432	8537.9
873.561	8622.3
873.69	8263.6
873.819	8086.9
873.948	8260.5
874.077	8182.6
874.206	8004.1
874.335	8014.4
874.464	8468.7
874.593	8943.2
874.722	8569.1
874.851	8966.8
874.979	8811.7
875.108	8792.1
875.237	8445.6
875.365	8136.5
875.494	8237.5
875.623	8583.7
875.751	7983.6
875.88	8223.1
876.008	8348.1
876.136	8304.4
876.265	8718.4
876.393	9091.5
876.521	8914
876.65	8780.5
876.778	8633.2
876.906	8336
877.034	8238.2
877.162	8383.9
877.29	8222.8
877.418	8429.3
877.546	8376.8
877.674	8486.7
877.802	8370.2
877.93	8272
878.058	8132.5
878.185	8073.8
878.313	8337.9
878.441	8321.2
878.568	7903.6
878.696	8127.7
878.824	8394.2
878.951	8574.8
879.079	8973
879.206	9350.3
879.333	8899
879.461	8675.2
879.588	8786.3
879.715	9117.1
879.842	9852.9
879.97	9019.2
880.097	8235.4
880.224	8167.7
880.351	8328
880.478	8329.2
880.605	8414.4
880.732	8374.3
880.859	9338.2
880.986	8595.7
881.112	8792.2
881.239	8490.1
881.366	8161.8
881.493	8009.1
881.619	7820
881.746	7959.9
881.872	8081.4
881.999	8074.6
882.125	8202.9
882.252	8534.9
882.378	8665.3
882.505	8996.7
882.631	8574.8
882.757	8261.7
882.883	8567.7
883.01	8447.5
883.136	8317.7
883.262	8140.3
883.388	8119.8
883.514	8620.1
883.64	8720.7
883.766	8862.4
883.892	8424.5
884.018	8513.7
884.143	8983.9
884.269	9490.6
884.395	8499.8
884.52	8215.6
884.646	8369.4
884.772	8267.1
884.897	8153.7
885.023	8428.8
885.148	8887.6
885.274	9186.7
885.399	9013.3
885.524	8739.5
885.65	8827.6
885.775	8897.6
885.9	8845.5
886.025	9144.9
886.15	8943.9
886.275	8650.7
886.4	8459.9
886.525	8815.8
886.65	8610.3
886.775	8672.7
886.9	9329.7
887.025	9562.7
887.149	8957.7
887.274	8502.2
887.399	8446.2
887.523	8480.7
887.648	8365.1
887.773	8427.1
887.897	8995.7
888.021	9082.7
888.146	8742.7
888.27	9456.1
888.395	9609.9
888.519	9062.5
888.643	9058.8
888.767	9110.3
888.891	8716.8
889.015	8524.3
889.139	8690.6
889.263	8569.2
889.387	9037.9
889.511	9275.1
889.635	9178.2
889.759	8636.1
889.883	8679.1
890.006	8832.1
890.13	9255.1
890.254	8661.1
890.377	8852.9
890.501	8383.2
890.624	8374.4
890.748	8682.2
890.871	8235.7
890.995	8096.5
891.118	7977.9
891.241	8375.7
891.364	8443.6
891.488	8740.3
891.611	8363.6
891.734	8463
891.857	8572.9
891.98	8450.6
892.103	8834.4
892.226	8633.5
892.349	8777.7
892.471	8154.9
892.594	8525.8
892.717	8641.2
892.839	8525.8
892.962	8759.4
893.085	8983.6
893.207	8724.4
893.33	8274.5
893.452	8360.8
893.575	8810.4
893.697	8517.8
893.819	9097.7
893.941	9290.9
894.064	9297.5
894.186	8668.9
894.308	8539.8
894.43	9111.8
894.552	9497.5
894.674	9372.9
894.796	8642.1
894.918	8839
895.04	8704.2
895.161	9010.9
895.283	9034.1
895.405	8676.5
895.526	8889.8
895.648	8974.5
895.769	9025.1
895.891	9160.8
896.012	9357.5
896.134	9126.6
896.255	8911.8
896.376	8761.1
896.498	8905.9
896.619	8981.8
896.74	8813.7
896.861	9064.8
896.982	9807.5
897.103	10225.1
897.224	9524
897.345	9209.1
897.466	9048.6
897.587	9222.7
897.708	9520.7
897.828	9247.3
897.949	9115.8
898.07	8782.7
898.19	8917.6
898.311	9448.1
898.431	8981.3
898.552	9171.2
898.672	9469.3
898.792	9396.7
898.913	9270.4
899.033	8914.1
899.153	8535.3
899.273	8351.9
899.393	8542.1
899.513	8737.5
899.633	8655.5
899.753	8770.7
899.873	8635.1
899.993	8943.5
900.113	8783.6
900.232	8915.6
900.352	8810.4
900.472	8599.2
900.591	8265.3
900.711	8458.4
900.83	8342.4
900.95	8864.2
901.069	9115.5
901.189	8668
901.308	8252.5
901.427	8197.2
901.546	8363.3
901.665	8649.4
901.784	8720.3
901.904	8351
902.023	8240.9
902.141	7842.1
902.26	7864.1
902.379	8290.3
902.498	8048.4
902.617	8043.6
902.735	8485.8
902.854	8483.2
902.973	8628.2
903.091	8007.7
903.21	8011.1
903.328	8216.9
903.446	8207.9
903.565	8074.4
903.683	8349.1
903.801	8192.1
903.919	8545.9
904.038	8603.8
904.156	8237.4
904.274	8602.2
904.392	8549.4
904.51	8595.8
904.627	8813.6
904.745	8951
904.863	9150.6
904.981	8493.1
905.098	8347.9
905.216	8598.5
905.334	8653.3
905.451	8727.8
905.569	8722.6
905.686	9060.3
905.803	9011.2
905.921	8622.4
906.038	8977.9
906.155	8853.5
906.272	8465.7
906.389	8667.3
906.506	8514.3
906.623	8503.9
906.74	8511.7
906.857	8310.1
906.974	8534
907.091	9149.2
907.208	9451.8
907.324	9105.5
907.441	8836.6
907.557	8465.1
907.674	8609.1
907.79	8375
907.907	8492.8
908.023	8805.4
908.139	8819.2
908.256	8780.1
908.372	8864
908.488	8772.7
908.604	8592
908.72	8431
908.836	8758.3
908.952	8716.1
909.068	8713.7
909.184	9220.5
909.3	8909.7
909.415	9141.1
909.531	9400.6
909.647	8555.5
909.762	8687.5
909.878	8641.4
909.993	8937.2
910.108	8837.4
910.224	8729.4
910.339	9145.1
910.454	8845
910.57	8650.2
910.685	8511.7
910.8	9717.1
910.915	9309.4
911.03	9138.9
911.145	8636
911.259	8591.7
911.374	8753.8
911.489	8472.9
911.604	8485.2
911.718	8118.4
911.833	8359.1
911.947	7964
912.062	7776.6
912.176	8221.8
912.291	8334.9
912.405	8346.7
912.519	9002.8
912.633	9235
912.748	8788.8
912.862	8670.3
912.976	8317.4
913.09	7992.9
913.204	8376.9
913.318	8480.5
913.431	8734.7
913.545	8891.6
913.659	9114.6
913.772	8914.2
913.886	8609.4
914	8409.5
914.113	8824.8
914.226	9016.6
914.34	8923.1
914.453	8456.1
914.566	9053.4
914.68	8584.2
914.793	8726.7
914.906	8274.6
915.019	8227.1
915.132	8058.9
915.245	8383.2
915.358	8472.9
915.47	8525.8
915.583	8566.1
915.696	8644.5
915.809	9108.7
915.921	9248
916.034	8688.9
916.146	8711.6
916.259	8581.9
916.371	8938.6
916.483	8958.1
916.595	8783.9
916.708	8874.6
916.82	8918.5
916.932	8702.8
917.044	8882
917.156	9032.7
917.268	8672.6
917.38	8708.4
917.491	8709.2
917.603	8911.1
917.715	9022.2
917.826	9277.5
917.938	8895.7
918.049	8617.9
918.161	9101.9
918.272	9388.8
918.384	9470.9
918.495	9179.5
918.606	8710.3
918.717	8608.4
918.828	8988.8
918.939	9025.8
919.05	8762.3
919.161	9128.6
919.272	8327.5
919.383	8543.7
919.494	9267
919.604	10114.3
919.715	9460.5
919.826	9262.2
919.936	9609
920.047	10121.6
920.157	9658.4
920.267	10828.9
920.378	10131.4
920.488	9977
920.598	11082.2
920.708	11497
920.818	11157
920.928	11227.6
921.038	12073.3
921.148	11817.9
921.258	10766
921.368	10678.5
921.477	10173.9
921.587	10060.9
921.697	9555.4
921.806	9929.8
921.916	9513
922.025	8895.6
922.134	8791.5
922.244	8725.9
922.353	9006.2
922.462	8581.3
922.571	8609.5
922.68	8178.6
922.789	8117.6
922.898	8421.6
923.007	8084.3
923.116	8418.1
923.224	8345.1
923.333	8406.7
923.442	8186.8
923.55	8106.5
923.659	8186.7
923.767	8464.6
923.876	8140.8
923.984	8477.4
924.092	8099.7
924.201	8420
924.309	8468.5
924.417	8576.8
924.525	8283.6
924.633	8456
924.741	13253.1
924.849	8047.6
924.956	8620.3
925.064	8072.6
925.172	8001.5
925.279	8060.5
925.387	8417.7
925.494	8336.4
925.602	8847.6
925.709	8828.7
925.816	8379
925.924	8558.6
926.031	8864
926.138	8792.2
926.245	9056.5
926.352	8542.7
926.459	9049.8
926.566	9115.1
926.673	8762.6
926.779	8576.4
926.886	8593.9
926.993	8279.9
927.099	8159.3
927.206	8138.2
927.312	8107.3
927.419	8533.7
927.525	8412.1
927.631	8577
927.737	8291.1
927.843	8188.5
927.95	7902.6
928.056	8194.2
928.162	8304.9
928.267	8485.1
928.373	11805.1
928.479	8734.7
928.585	8108.1
928.69	8608.4
928.796	8603.4
928.901	8349.3
929.007	8002.9
929.112	8429.9
929.218	8323.3
929.323	8407.8
929.428	8193.7
929.533	8931.7
929.638	8215.2
929.743	8526.5
929.848	8614.9
929.953	8504.8
930.058	8233.2
930.163	7824
930.267	8015.6
930.372	8536.9
930.477	7971.8
930.581	8740.7
930.685	8467.3
930.79	8055.7
930.894	8369.8
930.998	8230.9
931.103	9189.5
931.207	7844.4
931.311	7691.2
931.415	7647.8
931.519	7273.2
931.623	7590.3
