Data from glass3s10a1_V78500241_11.txt Node
Date: Fri Aug 28 11:58:50 CST 2020
User: usil
Spectrometer: V785-0024
Trigger mode: 0
Integration Time (sec): 3.000000E0
Scans to average: 10
Nonlinearity correction enabled: false
Boxcar width: 0
Storing dark spectrum: false
XAxis mode: Wavelengths
Number of Pixels in Spectrum: 1024
>>>>>Begin Spectral Data<<<<<
801.071	39515.7
801.214	39655.4
801.356	39759.8
801.499	39948.4
801.641	39874.4
801.783	40056.9
801.926	40404.8
802.068	40320
802.211	40396.8
802.353	40313.2
802.496	39913
802.638	40318.6
802.78	40693
802.923	40954.2
803.065	40681.8
803.208	40619.5
803.35	40729.7
803.492	40785.6
803.635	41010.6
803.777	40467.3
803.919	41024.3
804.061	42339.5
804.204	41397.1
804.346	41446.6
804.488	41320
804.63	41762
804.773	41526.1
804.915	41742.6
805.057	42276.7
805.199	41870.8
805.341	42024.4
805.483	42016.3
805.626	42136.6
805.768	42275.1
805.91	42835.8
806.052	43047.7
806.194	42704
806.336	43606.3
806.478	43627
806.62	44192.3
806.762	45072.9
806.904	45542.7
807.046	45795.1
807.188	44672.7
807.33	43956.7
807.472	43535.8
807.614	42327
807.756	42183.6
807.898	41932.2
808.04	42689.9
808.182	43776.6
808.324	44553.3
808.465	44377.1
808.607	43787.6
808.749	42809.8
808.891	42136.3
809.033	42454.2
809.174	42727.7
809.316	42808.9
809.458	42983.6
809.6	42496.6
809.741	42373.1
809.883	42310.5
810.025	42678.6
810.166	42042.4
810.308	41072.1
810.45	39985.9
810.591	38975.4
810.733	38540.2
810.875	38977.6
811.016	39371.1
811.158	39329.4
811.299	39200
811.441	39211
811.582	39004.9
811.724	39001.1
811.865	39033
812.007	39664.8
812.148	40396.9
812.29	41173.8
812.431	41785.6
812.573	42388
812.714	42978.8
812.855	43669.1
812.997	43775.6
813.138	44158.3
813.279	43662.8
813.421	42899.6
813.562	41714.5
813.703	40430.1
813.845	39791.6
813.986	38842.5
814.127	38262.8
814.268	37984.4
814.41	37909.8
814.551	37313.3
814.692	37324.2
814.833	36454.2
814.974	36009.5
815.115	35751.4
815.256	34829.9
815.397	34234.1
815.539	33714.3
815.68	33043.3
815.821	32988.5
815.962	33323.6
816.103	32806
816.244	32147.6
816.385	31998.1
816.526	32291.4
816.666	32024.3
816.807	31868.6
816.948	32465
817.089	32720.1
817.23	32441.3
817.371	32156
817.512	32092.8
817.653	32152.8
817.793	32001.4
817.934	31815.4
818.075	32058.3
818.216	31966.4
818.356	32088.9
818.497	31909.9
818.638	31909.8
818.778	32353.4
818.919	32735.5
819.06	33243.7
819.2	33816.1
819.341	33776.5
819.481	33655.9
819.622	33811.3
819.762	34208.1
819.903	33859.3
820.043	33341.8
820.184	33096.6
820.324	32704.9
820.465	32554.8
820.605	31972.9
820.746	31685.4
820.886	31190.3
821.026	31707
821.167	31071.9
821.307	30921.4
821.447	30305.3
821.588	29605.3
821.728	29005.4
821.868	28377.3
822.008	27687.8
822.149	27482.3
822.289	27468.5
822.429	26609.5
822.569	26291.8
822.709	26139
822.849	25348.2
822.99	25154.7
823.13	25020
823.27	24974.3
823.41	24486.9
823.55	24447.5
823.69	24258.2
823.83	24287.5
823.97	24024.5
824.11	23675.4
824.25	23507.2
824.389	23576.9
824.529	23592.4
824.669	23270.1
824.809	23605.7
824.949	23705.4
825.089	23489.5
825.228	23341.9
825.368	22673.9
825.508	22487.4
825.648	22403.6
825.787	22344
825.927	22384.7
826.067	22170.6
826.206	21989.8
826.346	22245.6
826.485	22073.6
826.625	22123.5
826.765	22730.5
826.904	22446.5
827.044	21671.1
827.183	21624.2
827.323	21348.3
827.462	21625
827.601	21422.6
827.741	21434.4
827.88	21786.3
828.02	21350.3
828.159	21536.4
828.298	21558.4
828.437	21696.5
828.577	21371.6
828.716	21928.3
828.855	21570.9
828.994	21190.9
829.134	21278.8
829.273	21342.3
829.412	21208.3
829.551	21103.1
829.69	21207.2
829.829	21501.2
829.968	21893.4
830.107	21599.5
830.246	21632.7
830.385	21413.9
830.524	21216
830.663	20939.3
830.802	20745
830.941	20447.1
831.08	20466
831.219	20627.7
831.357	20548.1
831.496	21298.5
831.635	20295.9
831.774	20126.2
831.913	20183.3
832.051	19761.4
832.19	19713.9
832.329	19879.4
832.467	19564.7
832.606	19345.9
832.744	19530.6
832.883	19564.8
833.022	19469.2
833.16	19615.7
833.299	19673.9
833.437	19760.7
833.576	19824.1
833.714	19803.3
833.852	19914.4
833.991	19873.3
834.129	19981
834.267	19999.9
834.406	19886.9
834.544	19944.1
834.682	20027.7
834.821	20050.3
834.959	21030.2
835.097	20076.1
835.235	20549.4
835.373	20324.6
835.511	20291.8
835.65	20025.6
835.788	20425.7
835.926	19879.7
836.064	19750
836.202	19804.6
836.34	20529.5
836.478	20693.6
836.615	20470.3
836.753	20788.9
836.891	21050.9
837.029	20947.6
837.167	21024.3
837.305	20991.8
837.443	20960.9
837.58	20907
837.718	21322.5
837.856	21120.3
837.993	21087.4
838.131	21357.1
838.269	21308.4
838.406	21405.9
838.544	21331.5
838.681	20897.4
838.819	20804.8
838.956	20275.9
839.094	20305.9
839.231	20450.5
839.369	20761
839.506	21662.1
839.643	21156.2
839.781	20454
839.918	20253
840.055	20562.3
840.193	20561.3
840.33	20437.9
840.467	20506.5
840.604	20637.3
840.742	21838.4
840.879	20339.4
841.016	20442
841.153	20431.2
841.29	21116.2
841.427	20789.7
841.564	20789.2
841.701	20726.5
841.838	20441.7
841.975	20321.1
842.112	20387.9
842.249	20059.2
842.385	20047.2
842.522	21208.3
842.659	20240.8
842.796	20118.7
842.933	20180.3
843.069	20254.6
843.206	20123.3
843.343	20474.1
843.479	20416.1
843.616	20530.9
843.752	19886
843.889	20006.9
844.025	20915
844.162	20085.1
844.298	20608.8
844.435	20258.7
844.571	20189.2
844.708	20611.2
844.844	20853.8
844.98	20984.7
845.117	21106.6
845.253	20582.5
845.389	20454.1
845.525	20637.1
845.661	20590.1
845.798	20397.9
845.934	20557.7
846.07	20336.3
846.206	20691.7
846.342	21016.2
846.478	20661.6
846.614	20200.7
846.75	19979.3
846.886	19845.9
847.022	20309.9
847.158	19977.2
847.294	19870.9
847.429	19938
847.565	19743.4
847.701	21393.5
847.837	19252.4
847.972	19148.5
848.108	19738.3
848.244	19623.6
848.379	18955.5
848.515	18627.9
848.65	18551.3
848.786	18760.5
848.921	18803.4
849.057	19072.8
849.192	19114.7
849.328	18912.6
849.463	18920.9
849.598	18735.7
849.734	18641.7
849.869	18475.8
850.004	18212.3
850.14	18357.7
850.275	18234.6
850.41	18086.9
850.545	18100.3
850.68	18074.7
850.815	18224.3
850.95	18166.2
851.085	18790
851.22	18472.8
851.355	18313.4
851.49	18110.9
851.625	17990.7
851.76	17979.6
851.895	17763.7
852.03	17740.9
852.165	17970.8
852.299	18197.8
852.434	18513.8
852.569	18130.4
852.703	18224.4
852.838	18414.2
852.973	18678.2
853.107	18597.1
853.242	18161.7
853.376	18034.2
853.511	17566
853.645	17885.5
853.78	18525.8
853.914	17989.7
854.048	17920.6
854.183	17764.7
854.317	18065
854.451	18561.1
854.585	17962.1
854.72	17785.2
854.854	18380.2
854.988	17638.7
855.122	18120.3
855.256	17503.7
855.39	17919.5
855.524	18136.7
855.658	17999.8
855.792	18091.9
855.926	18147
856.06	18166.4
856.194	18297.8
856.327	17950.8
856.461	17849.6
856.595	17953.5
856.729	17958.4
856.862	18353
856.996	17993.4
857.13	18326.2
857.263	18390.7
857.397	18400.7
857.53	18060.8
857.664	18250.3
857.797	18389.4
857.931	18402.5
858.064	18237.9
858.197	18540.7
858.331	18099.7
858.464	17849.9
858.597	17772.7
858.731	18148.8
858.864	18086.2
858.997	18120.3
859.13	18285.9
859.263	18300.8
859.396	18525.3
859.529	18100.5
859.662	18114.8
859.795	17952.7
859.928	18257.8
860.061	18717.5
860.194	18798.9
860.327	18413.9
860.46	18210.6
860.592	18538.2
860.725	18554.7
860.858	18542.1
860.99	18059.1
861.123	18018.8
861.256	17974.4
861.388	18260.2
861.521	25410.3
861.653	17961.6
861.786	17843.8
861.918	17896.7
862.05	18036.3
862.183	18292.5
862.315	18352.5
862.447	18517.3
862.58	18322.5
862.712	17858.4
862.844	17699.3
862.976	18087.2
863.108	18025.8
863.24	21862
863.372	17696.2
863.504	18022.8
863.636	17941.3
863.768	18251.7
863.9	18159.7
864.032	17951.3
864.164	17971.7
864.296	18221.3
864.428	18384.5
864.559	18444.7
864.691	18507.7
864.823	18478.9
864.954	18522.2
865.086	18577.9
865.217	18438.8
865.349	18281
865.48	18519.6
865.612	18680.1
865.743	19227.7
865.875	18653.1
866.006	18493.3
866.137	18784
866.269	18636.8
866.4	18616.5
866.531	18631.2
866.662	18594.9
866.793	18678.2
866.924	18769.9
867.055	18983.8
867.186	18926.1
867.317	18833.3
867.448	18766.4
867.579	19116.9
867.71	19046.1
867.841	19025.9
867.972	19336.5
868.103	19283.9
868.233	19431.1
868.364	19466
868.495	19615.6
868.625	20121.2
868.756	20643.3
868.886	20057.7
869.017	20386.1
869.147	20934.6
869.278	20755.3
869.408	20511.4
869.539	20454
869.669	20936.4
869.799	20685.5
869.929	20950.1
870.06	21083.6
870.19	21895.2
870.32	21652
870.45	21843.5
870.58	22131.8
870.71	22331.6
870.84	22286.9
870.97	22051.4
871.1	21958.6
871.23	22799
871.36	22909.8
871.489	22600.9
871.619	22851.6
871.749	23009.5
871.879	23102.6
872.008	23423.4
872.138	23035.4
872.267	22986.2
872.397	22819.6
872.526	22780.1
872.656	22686.4
872.785	22959.7
872.915	23569.5
873.044	23854.6
873.173	23692.4
873.303	23933.7
873.432	24094.2
873.561	24373.7
873.69	24041.4
873.819	24022.6
873.948	24341.6
874.077	24409.8
874.206	24384.1
874.335	24544.9
874.464	25106.8
874.593	25685.2
874.722	25488.6
874.851	25938.8
874.979	25970.7
875.108	26071.1
875.237	25891.8
875.365	25698.5
875.494	25998.3
875.623	26568.7
875.751	26195.8
875.88	26584.5
876.008	26956.7
876.136	27160.7
876.265	27657.5
876.393	28191.5
876.521	28138.4
876.65	28161.4
876.778	28162.1
876.906	27912.4
877.034	27894.4
877.162	28148.8
877.29	28082.9
877.418	28376.3
877.546	28549.5
877.674	28858.4
877.802	28820.8
877.93	28797.6
878.058	28705.5
878.185	28605.1
878.313	28961.8
878.441	29071.1
878.568	28738.2
878.696	28968.4
878.824	29195.5
878.951	29255.5
879.079	29513.5
879.206	29777.3
879.333	29326.5
879.461	29042.6
879.588	29104.2
879.715	29221.4
879.842	29855
879.97	28875.6
880.097	28013.1
880.224	27892.4
880.351	28036.6
880.478	27997.3
880.605	27957.4
880.732	27845.8
880.859	28786.1
880.986	27903.9
881.112	28067
881.239	27707.4
881.366	27302.8
881.493	27099.9
881.619	26849.5
881.746	26886.8
881.872	26968.6
881.999	26808.1
882.125	26815.2
882.252	27123.5
882.378	27100.9
882.505	27371.6
882.631	26892.5
882.757	26475
882.883	26773.8
883.01	26520.4
883.136	26388.9
883.262	26155.5
883.388	26019.4
883.514	26461.1
883.64	26529.7
883.766	26589.6
883.892	26073.3
884.018	26100.5
884.143	26441.6
884.269	26893.7
884.395	25884.2
884.52	25517.1
884.646	25640.2
884.772	25498.5
884.897	25296.1
885.023	25532.8
885.148	25931.4
885.274	26080.3
885.399	25906.7
885.524	25524.4
885.65	25624.5
885.775	25580.2
885.9	25480.2
886.025	25779
886.15	25524.1
886.275	25196
886.4	24978.8
886.525	25301.2
886.65	25104.3
886.775	25110.2
886.9	25701.3
887.025	25871.3
887.149	25201.1
887.274	24701.9
887.399	24674.8
887.523	24632.8
887.648	24511.5
887.773	24494.7
887.897	25027.9
888.021	25078.2
888.146	24721.6
888.27	25387.5
888.395	25421.2
888.519	24887
888.643	24835.6
888.767	24882.5
888.891	24451.7
889.015	24231.5
889.139	24395.4
889.263	24193.7
889.387	24660.8
889.511	24883.9
889.635	24718.1
889.759	24162.6
889.883	24149.4
890.006	24239.2
890.13	24646.3
890.254	24097.3
890.377	24206.9
890.501	23752.1
890.624	23766.7
890.748	24071.4
890.871	23530
890.995	23340.7
891.118	23223.3
891.241	23551.6
891.364	23552.2
891.488	23891.3
891.611	23500.3
891.734	23501.1
891.857	23583.2
891.98	23492.3
892.103	23826.4
892.226	23573.2
892.349	23723.7
892.471	23087
892.594	23396.9
892.717	23484.4
892.839	23307.8
892.962	23475.3
893.085	23717.5
893.207	23377.1
893.33	22940.2
893.452	22977
893.575	23377.5
893.697	23129.7
893.819	23647.9
893.941	23812.3
894.064	23805.1
894.186	23192.8
894.308	23050.2
894.43	23629.7
894.552	23968.8
894.674	23806.6
894.796	23031.9
894.918	23217.6
895.04	23021
895.161	23193.6
895.283	23172.7
895.405	22763
895.526	22967
895.648	22970.3
895.769	23031.6
895.891	23141.8
896.012	23331.4
896.134	23065.8
896.255	22838.3
896.376	22653.4
896.498	22760.6
896.619	22774.3
896.74	22580.8
896.861	22790.8
896.982	23513.5
897.103	23907.9
897.224	23206.6
897.345	22805.9
897.466	22634.3
897.587	22785.4
897.708	23076.8
897.828	22744.4
897.949	22570.4
898.07	22249.8
898.19	22366
898.311	22863.9
898.431	22381
898.552	22578.4
898.672	22911.8
898.792	22804.9
898.913	22602.8
899.033	22234.2
899.153	21845.3
899.273	21652.5
899.393	21835.8
899.513	22014.4
899.633	21903.7
899.753	21982.3
899.873	21822.8
899.993	22144.2
900.113	21907.2
900.232	21981.7
900.352	21892.4
900.472	21641.7
900.591	21338.2
900.711	21487.6
900.83	21373.8
900.95	21873.5
901.069	22021.8
901.189	21551.6
901.308	21087.6
901.427	21028.8
901.546	21153.3
901.665	21390.2
901.784	21410.2
901.904	21009.4
902.023	20881.4
902.141	20448.1
902.26	20499.7
902.379	20857.2
902.498	20571.9
902.617	20572.9
902.735	21014.8
902.854	20935.5
902.973	21088.1
903.091	20399.4
903.21	20337.8
903.328	20531.8
903.446	20509.8
903.565	20269
903.683	20521.5
903.801	20341.1
903.919	20641.1
904.038	20681.5
904.156	20303.6
904.274	20617.1
904.392	20543.7
904.51	20542.8
904.627	20733.5
904.745	20823.6
904.863	21015.6
904.981	20359.9
905.098	20177.6
905.216	20389.3
905.334	20469.9
905.451	20512.1
905.569	20465.2
905.686	20783.1
905.803	20709.6
905.921	20264
906.038	20615.9
906.155	20497.7
906.272	20127.5
906.389	20219.2
906.506	20017.5
906.623	19996.2
906.74	19979.3
906.857	19756.8
906.974	19905.2
907.091	20508
907.208	20754.2
907.324	20420
907.441	20132
907.557	19769.4
907.674	19835.4
907.79	19618.5
907.907	19685
908.023	19913.6
908.139	19918.6
908.256	19804
908.372	19847.6
908.488	19745
908.604	19563.6
908.72	19313.9
908.836	19665.1
908.952	19603.8
909.068	19581.4
909.184	20049.6
909.3	19709.8
909.415	19890.9
909.531	20119.3
909.647	19268.8
909.762	19319.5
909.878	19235.3
909.993	19474.1
910.108	19332.4
910.224	19209.8
910.339	19569.3
910.454	19260.8
910.57	19073.1
910.685	18877.7
910.8	20072
910.915	19569.7
911.03	19387.8
911.145	18841.5
911.259	18770.4
911.374	18915.9
911.489	18620.4
911.604	18581.9
911.718	18164.9
911.833	18397.4
911.947	17992.6
912.062	17764
912.176	18192.1
912.291	18273.2
912.405	18281
912.519	18870.4
912.633	19064.9
912.748	18586.7
912.862	18473.7
912.976	18111.8
913.09	17748.5
913.204	18145.5
913.318	18217.7
913.431	18459.5
913.545	18622.7
913.659	18822.8
913.772	18543.5
913.886	18260.5
914	18059.7
914.113	18430.3
914.226	18552.4
914.34	18510.2
914.453	18019.6
914.566	18600.9
914.68	18096.4
914.793	18186.6
914.906	17696.7
915.019	17661.2
915.132	17471.8
915.245	17786.7
915.358	17849
915.47	17944.4
915.583	17906
915.696	18003.6
915.809	18421.8
915.921	18565.6
916.034	17955.5
916.146	17982.4
916.259	17813.5
916.371	18103.3
916.483	18160.1
916.595	17978.6
916.708	18029.9
916.82	18047.8
916.932	17831.8
917.044	18012.8
917.156	18121.9
917.268	17751
917.38	17815.4
917.491	17771.6
917.603	17970.4
917.715	18066.8
917.826	18327.2
917.938	17858.6
918.049	17642.3
918.161	18051.9
918.272	18341.6
918.384	18407.3
918.495	18084
918.606	17654
918.717	17493.8
918.828	17871.7
918.939	17937.2
919.05	17627
919.161	17968.2
919.272	17145
919.383	17323.7
919.494	18050.3
919.604	18891.7
919.715	18175.7
919.826	17964.4
919.936	18331.2
920.047	18821
920.157	18356.4
920.267	19452.7
920.378	18774.1
920.488	18665.2
920.598	19672.3
920.708	20076.8
920.818	19765.2
920.928	19780.8
921.038	20603
921.148	20279.6
921.258	19246.1
921.368	19170.5
921.477	18591.1
921.587	18455.2
921.697	17962.5
921.806	18264
921.916	17859.3
922.025	17219.8
922.134	17081.1
922.244	17022
922.353	17248.4
922.462	16851.9
922.571	16804.4
922.68	16330.3
922.789	16271.2
922.898	16535.8
923.007	16108.2
923.116	16422.8
923.224	16386
923.333	16414.4
923.442	16189.6
923.55	16075.7
923.659	16112.6
923.767	16350.5
923.876	16060.3
923.984	16281.7
924.092	15920.7
924.201	16178.9
924.309	16195.1
924.417	16250.9
924.525	15960.6
924.633	16117.5
924.741	20977.9
924.849	15679
924.956	16180.5
925.064	15586.2
925.172	15508.7
925.279	15535.1
925.387	15841.5
925.494	15728.1
925.602	16182.2
925.709	16145.9
925.816	15672
925.924	15802.4
926.031	16125
926.138	15969.4
926.245	16234.2
926.352	15693.5
926.459	16159.5
926.566	16219.6
926.673	15834.6
926.779	15621.1
926.886	15621.4
926.993	15228.8
927.099	15152.3
927.206	15055.8
927.312	14983.9
927.419	15355.9
927.525	15216.3
927.631	15339.9
927.737	15043.9
927.843	14861.4
927.95	14598.5
928.056	14843
928.162	14922.3
928.267	15079.4
928.373	18477.3
928.479	15270.4
928.585	14597.9
928.69	15066.8
928.796	15066.2
928.901	14754
929.007	14327.5
929.112	14764.6
929.218	14673.5
929.323	14696.6
929.428	14443.7
929.533	15118.4
929.638	14430
929.743	14677.6
929.848	14727.1
929.953	14604.6
930.058	14322.5
930.163	13876.4
930.267	14020.8
930.372	14476.7
930.477	13903.4
930.581	14668.5
930.685	14329.3
930.79	13862.3
930.894	14154.2
930.998	13987.4
931.103	14919.3
931.207	13493.3
931.311	13310.6
931.415	13219.7
931.519	12810.3
931.623	13104.1
