Data from glass3s10a1_V78500241_1.txt Node
Date: Fri Aug 28 11:53:49 CST 2020
User: usil
Spectrometer: V785-0024
Trigger mode: 0
Integration Time (sec): 3.000000E0
Scans to average: 10
Nonlinearity correction enabled: false
Boxcar width: 0
Storing dark spectrum: false
XAxis mode: Wavelengths
Number of Pixels in Spectrum: 1024
>>>>>Begin Spectral Data<<<<<
801.071	39593.6
801.214	39702.2
801.356	39885.6
801.499	40175.5
801.641	40086.9
801.783	40301.4
801.926	40587.4
802.068	40541.5
802.211	40596.6
802.353	40482.9
802.496	40063.5
802.638	40446.4
802.78	40812.7
802.923	41182.2
803.065	40913.2
803.208	40882.6
803.35	40939.8
803.492	40961.5
803.635	41159.2
803.777	40581.2
803.919	41192.2
804.061	42576.5
804.204	41617
804.346	41709.6
804.488	41620.2
804.63	41966.9
804.773	41620.9
804.915	41913.1
805.057	42460.9
805.199	42038.6
805.341	42072.4
805.483	42135.1
805.626	42240.9
805.768	42412
805.91	43110
806.052	43194
806.194	42818.7
806.336	43722
806.478	43731.4
806.62	44352.4
806.762	45171.8
806.904	45664.3
807.046	45968
807.188	44998.3
807.33	44192.2
807.472	43599.1
807.614	42464.2
807.756	42330.5
807.898	42068.7
808.04	42801.5
808.182	43859.2
808.324	44605.6
808.465	44542.9
808.607	43918.9
808.749	42947.2
808.891	42301.8
809.033	42532.9
809.174	42795.3
809.316	42826.9
809.458	43096.7
809.6	42525.1
809.741	42431.4
809.883	42378.6
810.025	42676
810.166	42050.8
810.308	41168.9
810.45	40073.1
810.591	39084.5
810.733	38699
810.875	39141
811.016	39525.6
811.158	39420.9
811.299	39330.1
811.441	39306.5
811.582	39173.7
811.724	39097.1
811.865	39143.7
812.007	39747.4
812.148	40417.8
812.29	41238.1
812.431	41902.4
812.573	42442
812.714	43052.5
812.855	43682.6
812.997	43754.7
813.138	44287.6
813.279	43799.1
813.421	42889.1
813.562	41684
813.703	40490.5
813.845	39902.6
813.986	38973.3
814.127	38402.9
814.268	38077.5
814.41	37974.3
814.551	37461.3
814.692	37531.6
814.833	36591.9
814.974	36084.9
815.115	35851.2
815.256	35038.7
815.397	34386.3
815.539	33920.7
815.68	33198.5
815.821	33101.9
815.962	33455.6
816.103	32940.7
816.244	32296.3
816.385	32125.2
816.526	32443
816.666	32183
816.807	31968.8
816.948	32564.6
817.089	32851.5
817.23	32594.8
817.371	32187.3
817.512	32150.9
817.653	32268.8
817.793	32080.3
817.934	31930.4
818.075	32103.1
818.216	32064.7
818.356	32207.1
818.497	31983.7
818.638	31988.7
818.778	32411
818.919	32761.6
819.06	33278.7
819.2	33841.8
819.341	33833
819.481	33698
819.622	33928.5
819.762	34340.1
819.903	33872.9
820.043	33461.8
820.184	33166.2
820.324	32810.7
820.465	32670
820.605	32118.9
820.746	31853
820.886	31343.5
821.026	31848.6
821.167	31191.2
821.307	31026.4
821.447	30502.1
821.588	29753.3
821.728	29119
821.868	28504.2
822.008	27811.8
822.149	27659.2
822.289	27566.6
822.429	26721.8
822.569	26350.1
822.709	26216.8
822.849	25513.7
822.99	25297.2
823.13	25149.8
823.27	25121.5
823.41	24610.9
823.55	24531.1
823.69	24395.7
823.83	24429.3
823.97	24134.2
824.11	23775.8
824.25	23622
824.389	23689.4
824.529	23713.1
824.669	23439
824.809	23749.5
824.949	23787.1
825.089	23615.6
825.228	23450.1
825.368	22787
825.508	22628.6
825.648	22596.5
825.787	22495.6
825.927	22521.7
826.067	22315.1
826.206	22144.6
826.346	22318.2
826.485	22166.1
826.625	22231.8
826.765	22874.5
826.904	22547.9
827.044	21850.7
827.183	21765
827.323	21434.3
827.462	21734.9
827.601	21576.8
827.741	21595.3
827.88	21903.9
828.02	21527.7
828.159	21685.4
828.298	21694
828.437	21839.5
828.577	21542.4
828.716	22112.2
828.855	21704.4
828.994	21309.5
829.134	21384.9
829.273	21465.5
829.412	21332.1
829.551	21233.9
829.69	21342.2
829.829	21616.6
829.968	21992.9
830.107	21728.6
830.246	21777.9
830.385	21506.5
830.524	21330.9
830.663	21044
830.802	20838.6
830.941	20633.7
831.08	20563
831.219	20720.9
831.357	20646.1
831.496	21386.8
831.635	20455.8
831.774	20286.5
831.913	20220.3
832.051	19919.8
832.19	19850.5
832.329	20042.6
832.467	19673
832.606	19483.7
832.744	19676.4
832.883	19697.4
833.022	19607
833.16	19768.7
833.299	19838
833.437	19892
833.576	19925.4
833.714	19874
833.852	20042.2
833.991	20028.9
834.129	20059.3
834.267	20087.8
834.406	19989.7
834.544	20068.8
834.682	20196.6
834.821	20100.4
834.959	21182.6
835.097	20208.5
835.235	20697.4
835.373	20451.4
835.511	20430.3
835.65	20175.5
835.788	20556.7
835.926	20008.4
836.064	19887.7
836.202	19897.7
836.34	20680.3
836.478	20840.4
836.615	20664.4
836.753	20910.1
836.891	21188.2
837.029	21113.2
837.167	21097.7
837.305	21080.5
837.443	21066.5
837.58	21014.3
837.718	21456
837.856	21321.8
837.993	21222
838.131	21463.3
838.269	21440.5
838.406	21491.4
838.544	21477.1
838.681	20964.2
838.819	20836.3
838.956	20392
839.094	20398.7
839.231	20516.3
839.369	20851.5
839.506	21840.4
839.643	21311.7
839.781	20565
839.918	20426.2
840.055	20701.3
840.193	20668.4
840.33	20542.9
840.467	20661.2
840.604	20775.8
840.742	21971.3
840.879	20442.8
841.016	20566.4
841.153	20581.9
841.29	21246.5
841.427	20907.7
841.564	20984.4
841.701	20885.7
841.838	20616.8
841.975	20456.2
842.112	20545.7
842.249	20175.4
842.385	20165.9
842.522	21365.9
842.659	20407.8
842.796	20276.3
842.933	20320.7
843.069	20427
843.206	20276.6
843.343	20616.9
843.479	20537.2
843.616	20725.8
843.752	20019
843.889	20154.8
844.025	21060.5
844.162	20248.1
844.298	20715.6
844.435	20414.7
844.571	20307.1
844.708	20776.2
844.844	21026.5
844.98	21134.2
845.117	21139.6
845.253	20722.6
845.389	20568.1
845.525	20818.4
845.661	20706.5
845.798	20507.5
845.934	20690.1
846.07	20496.1
846.206	20861.4
846.342	21124.5
846.478	20788.3
846.614	20361.1
846.75	20103.1
846.886	19960.1
847.022	20450.1
847.158	20101.6
847.294	20032.1
847.429	20146.5
847.565	19873
847.701	21584.3
847.837	19400.7
847.972	19253.2
848.108	19870.7
848.244	19767.6
848.379	19091.1
848.515	18779.8
848.65	18679.4
848.786	18901.3
848.921	18885.8
849.057	19187.7
849.192	19259.5
849.328	19055
849.463	19064.5
849.598	18866.6
849.734	18819
849.869	18627.6
850.004	18315.7
850.14	18504.1
850.275	18337.3
850.41	18242.8
850.545	18226.9
850.68	18181.7
850.815	18400
850.95	18286.4
851.085	18962.3
851.22	18606.8
851.355	18449.7
851.49	18230.6
851.625	18116.7
851.76	18104.4
851.895	17868.3
852.03	17885
852.165	18089.1
852.299	18316.7
852.434	18669.7
852.569	18250.9
852.703	18374.6
852.838	18522.9
852.973	18814.3
853.107	18678.2
853.242	18304.2
853.376	18153.3
853.511	17720.5
853.645	18068.6
853.78	18622
853.914	18104.1
854.048	18053.9
854.183	17878.1
854.317	18202.3
854.451	18684.8
854.585	18072.2
854.72	17928
854.854	18456.4
854.988	17824.8
855.122	18190.9
855.256	17616.8
855.39	18001.1
855.524	18263.2
855.658	18113
855.792	18233
855.926	18257.1
856.06	18272.3
856.194	18406.5
856.327	18084.2
856.461	17990.3
856.595	18079.1
856.729	18057.7
856.862	18461.3
856.996	18074.5
857.13	18417.7
857.263	18528.3
857.397	18530.2
857.53	18177.9
857.664	18380.8
857.797	18493.7
857.931	18507.3
858.064	18325.5
858.197	18625.4
858.331	18212.6
858.464	18015.7
858.597	17889.6
858.731	18285.9
858.864	18176.3
858.997	18239.6
859.13	18390
859.263	18388.7
859.396	18666
859.529	18248.4
859.662	18259.6
859.795	18050.4
859.928	18375.1
860.061	18803
860.194	18898.6
860.327	18530.2
860.46	18346.5
860.592	18647.8
860.725	18669.6
860.858	18671.1
860.99	18179.1
861.123	18123.9
861.256	18139.9
861.388	18374.8
861.521	24611
861.653	18083.1
861.786	17947.4
861.918	18044
862.05	18195.1
862.183	18410.8
862.315	18465.7
862.447	18638.7
862.58	18428.3
862.712	17971.2
862.844	17803.1
862.976	18214.1
863.108	18149.4
863.24	21130.9
863.372	17825.9
863.504	18106.4
863.636	18074.4
863.768	18391
863.9	18274
864.032	18030.7
864.164	18072.5
864.296	18345.3
864.428	18520.2
864.559	18563.2
864.691	18642.7
864.823	18601
864.954	18613.2
865.086	18714
865.217	18573.5
865.349	18449.3
865.48	18647.8
865.612	18808.4
865.743	19327.8
865.875	18753.5
866.006	18628.7
866.137	18848.7
866.269	18767.7
866.4	18742.6
866.531	18703.7
866.662	18742.2
866.793	18790.8
866.924	18896.2
867.055	19076.9
867.186	19094.8
867.317	18981
867.448	18875.4
867.579	19249.8
867.71	19193
867.841	19161.1
867.972	19448.9
868.103	19434.1
868.233	19525.2
868.364	19585.9
868.495	19783.5
868.625	20269.8
868.756	20788.3
868.886	20216.4
869.017	20494
869.147	21056.1
869.278	20855.7
869.408	20637
869.539	20616.7
869.669	21007.4
869.799	20857.9
869.929	21069
870.06	21188.1
870.19	21998.3
870.32	21790.4
870.45	21978.9
870.58	22262.6
870.71	22446.7
870.84	22405.7
870.97	22192.2
871.1	22094
871.23	22940.6
871.36	22979.4
871.489	22725.6
871.619	22980.2
871.749	23077.5
871.879	23244.2
872.008	23565.4
872.138	23170.8
872.267	23143.1
872.397	23012.2
872.526	22920.9
872.656	22802.4
872.785	23017.8
872.915	23707.2
873.044	23984.1
873.173	23794.8
873.303	24059.5
873.432	24236.5
873.561	24476.2
873.69	24174.1
873.819	24099.3
873.948	24450.7
874.077	24549.2
874.206	24463.4
874.335	24640.2
874.464	25230.1
874.593	25818.5
874.722	25622.8
874.851	26060.2
874.979	26085.9
875.108	26211.5
875.237	26058
875.365	25883.6
875.494	26121
875.623	26679.8
875.751	26296.3
875.88	26692
876.008	27001.8
876.136	27233.4
876.265	27799.9
876.393	28288.3
876.521	28217.4
876.65	28258.4
876.778	28245.1
876.906	28043.9
877.034	28059.1
877.162	28249.8
877.29	28185.5
877.418	28514.5
877.546	28635.4
877.674	28917.8
877.802	28909
877.93	28855.4
878.058	28815.5
878.185	28723.4
878.313	29094.6
878.441	29218.3
878.568	28790.7
878.696	29041.9
878.824	29300.3
878.951	29393.8
879.079	29653.5
879.206	29927.9
879.333	29425.7
879.461	29168.2
879.588	29225.3
879.715	29342.8
879.842	29899.4
879.97	29033.8
880.097	28147.7
880.224	28001.3
880.351	28121.4
880.478	28067.5
880.605	28077.5
880.732	28021.9
880.859	28912.5
880.986	28024.1
881.112	28167.2
881.239	27838.4
881.366	27390.9
881.493	27162.8
881.619	26984.2
881.746	26996
881.872	27079
881.999	26944.5
882.125	26925.8
882.252	27260.5
882.378	27199.9
882.505	27525.2
882.631	26993.3
882.757	26644.9
882.883	26912.4
883.01	26648.3
883.136	26495.6
883.262	26260.3
883.388	26169.4
883.514	26607.6
883.64	26666.8
883.766	26685.2
883.892	26196.9
884.018	26227.5
884.143	26601.5
884.269	27005.1
884.395	25967.2
884.52	25623.5
884.646	25736.4
884.772	25629.1
884.897	25407.1
885.023	25675.4
885.148	26024.6
885.274	26201.3
885.399	26005.6
885.524	25634.1
885.65	25685.6
885.775	25664
885.9	25619.5
886.025	25875.6
886.15	25628.3
886.275	25344.3
886.4	25078.9
886.525	25407.8
886.65	25204
886.775	25207
886.9	25818.1
887.025	25986.2
887.149	25352.4
887.274	24818.8
887.399	24812.2
887.523	24755.9
887.648	24622.3
887.773	24578
887.897	25150.1
888.021	25172.1
888.146	24782.8
888.27	25485.3
888.395	25521.1
888.519	25027.5
888.643	24930.9
888.767	25035.3
888.891	24597.2
889.015	24316
889.139	24503.2
889.263	24346.4
889.387	24747.5
889.511	25000.6
889.635	24851.7
889.759	24290.9
889.883	24319.5
890.006	24375.1
890.13	24756.3
890.254	24203.9
890.377	24358.3
890.501	23875.9
890.624	23819.2
890.748	24159.6
890.871	23701.9
890.995	23455.8
891.118	23291.1
891.241	23654.8
891.364	23709.5
891.488	23972.4
891.611	23569.6
891.734	23610.9
891.857	23716.4
891.98	23596.8
892.103	23914.6
892.226	23725.9
892.349	23843
892.471	23159.8
892.594	23495.1
892.717	23596.5
892.839	23432.5
892.962	23634.3
893.085	23808.9
893.207	23506
893.33	23046.9
893.452	23062.5
893.575	23569.9
893.697	23260.2
893.819	23780
893.941	23947
894.064	23937
894.186	23302.8
894.308	23135.4
894.43	23720.8
894.552	24058.8
894.674	23926.4
894.796	23144.9
894.918	23346.4
895.04	23097.7
895.161	23330.6
895.283	23272.5
895.405	22866.2
895.526	23113.4
895.648	23097.7
895.769	23151.5
895.891	23253
896.012	23429.2
896.134	23214.1
896.255	22921.6
896.376	22758.2
896.498	22855.9
896.619	22898.7
896.74	22716.9
896.861	22907.1
896.982	23648.2
897.103	24028.2
897.224	23330.8
897.345	22908.2
897.466	22745.8
897.587	22880.1
897.708	23138.2
897.828	22843.7
897.949	22707.3
898.07	22309.9
898.19	22490.9
898.311	23022.4
898.431	22489.1
898.552	22637
898.672	23000.3
898.792	22874.5
898.913	22723.6
899.033	22347.9
899.153	21950.3
899.273	21746.1
899.393	21931.4
899.513	22123.7
899.633	21988.4
899.753	22115.8
899.873	21910.2
899.993	22205.1
900.113	22015.3
900.232	22135.1
900.352	21984
900.472	21765.4
900.591	21398.2
900.711	21544.2
900.83	21441.1
900.95	21970.8
901.069	22129.6
901.189	21665.3
901.308	21217.1
901.427	21150.3
901.546	21276.5
901.665	21490.3
901.784	21509.2
901.904	21130.1
902.023	20971
902.141	20563
902.26	20572.5
902.379	20923.1
902.498	20734.3
902.617	20683
902.735	21104.5
902.854	20984.6
902.973	21169.1
903.091	20499.3
903.21	20419.2
903.328	20637.3
903.446	20576.3
903.565	20426.9
903.683	20616.5
903.801	20423.2
903.919	20719.4
904.038	20833.5
904.156	20387.3
904.274	20718.7
904.392	20639
904.51	20679.3
904.627	20812.7
904.745	20928.7
904.863	21109.1
904.981	20431.5
905.098	20275.2
905.216	20490.8
905.334	20584
905.451	20622.1
905.569	20567.8
905.686	20878
905.803	20825.8
905.921	20353.1
906.038	20698
906.155	20607.1
906.272	20207.4
906.389	20356.2
906.506	20127
906.623	20096.3
906.74	20049.9
906.857	19823.4
906.974	20026.7
907.091	20564
907.208	20875.1
907.324	20500.3
907.441	20231.9
907.557	19852.6
907.674	19955.3
907.79	19678.7
907.907	19761.1
908.023	20049.8
908.139	19985.4
908.256	19921.3
908.372	19935.8
908.488	19873.2
908.604	19632.6
908.72	19458.7
908.836	19771
908.952	19684.2
909.068	19691.4
909.184	20139.3
909.3	19823.5
909.415	19985.7
909.531	20201.2
909.647	19341
909.762	19383.3
909.878	19341.1
909.993	19584.8
910.108	19448
910.224	19312
910.339	19654.5
910.454	19363.5
910.57	19196.4
910.685	18963.3
910.8	20159
910.915	19724.8
911.03	19455.6
911.145	18984.5
911.259	18899.2
911.374	19048
911.489	18707.2
911.604	18693.1
911.718	18303.9
911.833	18497.5
911.947	18053.1
912.062	17854
912.176	18319.1
912.291	18348.5
912.405	18322.9
912.519	18985.2
912.633	19191.5
912.748	18733.9
912.862	18553.9
912.976	18190.1
913.09	17835
913.204	18233.1
913.318	18295.9
913.431	18540.5
913.545	18734.3
913.659	18920.7
913.772	18685.7
913.886	18356.8
914	18132.2
914.113	18517.8
914.226	18688.1
914.34	18617.1
914.453	18072.2
914.566	18673.7
914.68	18197.1
914.793	18295.8
914.906	17787.2
915.019	17767
915.132	17591.8
915.245	17856.3
915.358	17948
915.47	18004.7
915.583	18018.5
915.696	18104.5
915.809	18482.5
915.921	18628.7
916.034	18069.4
916.146	18028.9
916.259	17899.1
916.371	18229.1
916.483	18285.7
916.595	18051.7
916.708	18129.3
916.82	18155.5
916.932	17928
917.044	18101.4
917.156	18230.8
917.268	17849.6
917.38	17883
917.491	17882
917.603	18054.8
917.715	18159.6
917.826	18402.5
917.938	17955.8
918.049	17699
918.161	18152.8
918.272	18440
918.384	18502.1
918.495	18219.6
918.606	17754.5
918.717	17613.3
918.828	17982
918.939	18010.2
919.05	17715
919.161	18087.3
919.272	17232.7
919.383	17413.7
919.494	18130
919.604	18947.2
919.715	18248.4
919.826	18037.5
919.936	18421.4
920.047	18924.4
920.157	18432.8
920.267	19547.8
920.378	18905.7
920.488	18710.1
920.598	19802
920.708	20231.7
920.818	19826.9
920.928	19905.8
921.038	20716.1
921.148	20411.9
921.258	19345.4
921.368	19256.1
921.477	18670.1
921.587	18571.8
921.697	18042.6
921.806	18387.9
921.916	17968.2
922.025	17311.9
922.134	17163.9
922.244	17089.3
922.353	17367.2
922.462	16913
922.571	16884
922.68	16420.1
922.789	16332.1
922.898	16639.4
923.007	16200.4
923.116	16568.2
923.224	16433.1
923.333	16512.5
923.442	16248.2
923.55	16162.5
923.659	16212.3
923.767	16464.7
923.876	16131.4
923.984	16401.9
924.092	15999.2
924.201	16288.5
924.309	16288.5
924.417	16333.8
924.525	16082.3
924.633	16176.2
924.741	20534.7
924.849	15731.7
924.956	16241.3
925.064	15681.6
925.172	15598.3
925.279	15664.8
925.387	15952.1
925.494	15800.8
925.602	16312.9
925.709	16237.3
925.816	15756.2
925.924	15866.2
926.031	16193.3
926.138	16040
926.245	16374.6
926.352	15761.5
926.459	16284
926.566	16283.5
926.673	15936.7
926.779	15667.4
926.886	15695.7
926.993	15332
927.099	15187.8
927.206	15163.4
927.312	15037.1
927.419	15435.6
927.525	15293.9
927.631	15435.7
927.737	15110.7
927.843	14982.7
927.95	14650.5
928.056	14932.1
928.162	15036.4
928.267	15153.2
928.373	18488.5
928.479	15342.7
928.585	14663.5
928.69	15194.7
928.796	15157
928.901	14878.9
929.007	14448.4
929.112	14857.9
929.218	14753.7
929.323	14768.7
929.428	14532
929.533	15181.9
929.638	14472.1
929.743	14775.1
929.848	14845.3
929.953	14718.5
930.058	14386.9
930.163	13959.3
930.267	14138.7
930.372	14597.2
930.477	13961.9
930.581	14717.9
930.685	14422.8
930.79	13955.3
930.894	14202.8
930.998	14051
931.103	14993.9
931.207	13548.8
931.311	13383.9
931.415	13307.3
931.519	12869.3
931.623	13182
