Data from glass3s10a1_V78500241_13.txt Node
Date: Fri Aug 28 11:59:50 CST 2020
User: usil
Spectrometer: V785-0024
Trigger mode: 0
Integration Time (sec): 3.000000E0
Scans to average: 10
Nonlinearity correction enabled: false
Boxcar width: 0
Storing dark spectrum: false
XAxis mode: Wavelengths
Number of Pixels in Spectrum: 1024
>>>>>Begin Spectral Data<<<<<
801.071	39532.4
801.214	39732.3
801.356	39809.8
801.499	40124.2
801.641	40077.3
801.783	40251.6
801.926	40506.6
802.068	40401.5
802.211	40450.2
802.353	40409.9
802.496	40045.1
802.638	40379.3
802.78	40736.9
802.923	41009.2
803.065	40734.9
803.208	40709.2
803.35	40791.2
803.492	40835.9
803.635	41083.2
803.777	40561.3
803.919	40996.2
804.061	42391.2
804.204	41427.5
804.346	41494.3
804.488	41419.1
804.63	41804.3
804.773	41470.6
804.915	41660.4
805.057	42185.3
805.199	41863.7
805.341	42042.8
805.483	41999.9
805.626	42237.4
805.768	42273.7
805.91	42939.6
806.052	43150.6
806.194	42783.6
806.336	43648.6
806.478	43610.7
806.62	44210.3
806.762	45063
806.904	45587.9
807.046	45843.4
807.188	44789.9
807.33	44088.7
807.472	43596.2
807.614	42390.1
807.756	42232.4
807.898	41996
808.04	42647.4
808.182	43746.4
808.324	44518.5
808.465	44427.6
808.607	43811.5
808.749	42844.5
808.891	42292
809.033	42486.8
809.174	42675.9
809.316	42910.2
809.458	43082.5
809.6	42519.8
809.741	42384.5
809.883	42299.5
810.025	42666.7
810.166	42103
810.308	41116.4
810.45	40055.6
810.591	39072.2
810.733	38586.6
810.875	39069.8
811.016	39322.6
811.158	39227.1
811.299	39140.2
811.441	39144.1
811.582	38951.6
811.724	38899.3
811.865	38990.7
812.007	39666.9
812.148	40342.8
812.29	41152.9
812.431	41722.9
812.573	42202.3
812.714	42877.3
812.855	43558.3
812.997	43733.6
813.138	44211.1
813.279	43686
813.421	42812.1
813.562	41648.3
813.703	40401.8
813.845	39757.2
813.986	38764.3
814.127	38142.7
814.268	37897.4
814.41	37791
814.551	37289.2
814.692	37232.2
814.833	36485.6
814.974	35994.6
815.115	35717.6
815.256	34885.2
815.397	34281.5
815.539	33704.4
815.68	33045.6
815.821	32998.5
815.962	33310.3
816.103	32775.9
816.244	32129.8
816.385	31956.8
816.526	32197.8
816.666	32044.9
816.807	31906.8
816.948	32436
817.089	32671
817.23	32396.1
817.371	32078.6
817.512	32052.6
817.653	32162.8
817.793	31984.3
817.934	31760.7
818.075	32010.1
818.216	31947
818.356	32062.3
818.497	31909.5
818.638	31822.5
818.778	32249.1
818.919	32674.7
819.06	33141.3
819.2	33732.3
819.341	33729.1
819.481	33571.5
819.622	33774.1
819.762	34199.1
819.903	33784.8
820.043	33268.6
820.184	33057.3
820.324	32721.6
820.465	32507.1
820.605	31957.1
820.746	31634.3
820.886	31116.3
821.026	31653.4
821.167	31008.7
821.307	30887
821.447	30244.9
821.588	29599
821.728	28996.9
821.868	28330.4
822.008	27642.3
822.149	27517.2
822.289	27396.2
822.429	26587.5
822.569	26242.6
822.709	26097.1
822.849	25374.7
822.99	25082
823.13	25020.6
823.27	24940.3
823.41	24472.8
823.55	24431.3
823.69	24178.2
823.83	24262.9
823.97	23963.8
824.11	23650.6
824.25	23443.3
824.389	23542.9
824.529	23617.6
824.669	23272.4
824.809	23570.6
824.949	23668.8
825.089	23532.9
825.228	23330.6
825.368	22670
825.508	22484.9
825.648	22407.8
825.787	22303.8
825.927	22409.4
826.067	22121
826.206	21983.7
826.346	22195.7
826.485	22044.6
826.625	22068.3
826.765	22700.1
826.904	22423.9
827.044	21680.1
827.183	21628.2
827.323	21349.3
827.462	21629.5
827.601	21415.7
827.741	21403.2
827.88	21765.2
828.02	21394.7
828.159	21508.1
828.298	21525.2
828.437	21673.1
828.577	21362.1
828.716	21920.9
828.855	21548
828.994	21187.9
829.134	21206.7
829.273	21323.2
829.412	21210.6
829.551	21088.1
829.69	21209.4
829.829	21503.7
829.968	21861
830.107	21599.2
830.246	21646.5
830.385	21342.5
830.524	21224.5
830.663	20913.5
830.802	20732.9
830.941	20457.3
831.08	20454.3
831.219	20608.3
831.357	20516.3
831.496	21241.2
831.635	20310
831.774	20164.2
831.913	20131.8
832.051	19745.9
832.19	19709
832.329	19902.6
832.467	19540.8
832.606	19309.9
832.744	19518.7
832.883	19528.6
833.022	19463.2
833.16	19638.3
833.299	19681.5
833.437	19734.5
833.576	19812.1
833.714	19795.3
833.852	19913.9
833.991	19835.5
834.129	19965.7
834.267	19919
834.406	19892.7
834.544	19948.4
834.682	20019.2
834.821	20013.9
834.959	20969.9
835.097	20068.2
835.235	20524.2
835.373	20314.6
835.511	20265.9
835.65	19967.8
835.788	20372.6
835.926	19877.9
836.064	19736.7
836.202	19757.9
836.34	20536.1
836.478	20668.9
836.615	20452
836.753	20759
836.891	21019.6
837.029	20908.5
837.167	20897.9
837.305	20912
837.443	20843.5
837.58	20801
837.718	21274.8
837.856	21099.1
837.993	21005.8
838.131	21267
838.269	21182.5
838.406	21286.4
838.544	21311.3
838.681	20816.4
838.819	20673.3
838.956	20214.7
839.094	20231.7
839.231	20366.8
839.369	20679.4
839.506	21584.6
839.643	21130.8
839.781	20408.2
839.918	20228.6
840.055	20492.3
840.193	20466.1
840.33	20370
840.467	20451.2
840.604	20606.3
840.742	21814.7
840.879	20251.1
841.016	20384.3
841.153	20367.9
841.29	21064.2
841.427	20706.7
841.564	20790.2
841.701	20672.7
841.838	20413.2
841.975	20255.8
842.112	20358.5
842.249	20019.6
842.385	19977.5
842.522	21124.9
842.659	20185.6
842.796	20075
842.933	20114.8
843.069	20240.4
843.206	20071
843.343	20412.4
843.479	20331
843.616	20517.7
843.752	19881.7
843.889	19962
844.025	20895.6
844.162	20096.6
844.298	20568.3
844.435	20202.7
844.571	20133.6
844.708	20618.1
844.844	20824.5
844.98	20934.2
845.117	21012.5
845.253	20546.9
845.389	20434.8
845.525	20606.1
845.661	20566.1
845.798	20323.5
845.934	20513.6
846.07	20324.2
846.206	20660
846.342	20927.9
846.478	20599.5
846.614	20187.4
846.75	19976.8
846.886	19821.6
847.022	20317.5
847.158	19918.5
847.294	19892.4
847.429	19988.2
847.565	19709.3
847.701	21399.7
847.837	19270.2
847.972	19103.9
848.108	19736.4
848.244	19615.1
848.379	18935
848.515	18613.3
848.65	18584.6
848.786	18738.7
848.921	18758.1
849.057	19024.1
849.192	19086.8
849.328	18868
849.463	18883.4
849.598	18676.2
849.734	18604.5
849.869	18485.3
850.004	18181
850.14	18348.7
850.275	18208
850.41	18046
850.545	18054.2
850.68	18057.2
850.815	18171.9
850.95	18144
851.085	18786.2
851.22	18440.1
851.355	18257
851.49	18050.3
851.625	17945
851.76	17949.2
851.895	17761.3
852.03	17694
852.165	17964.8
852.299	18128.5
852.434	18486.1
852.569	18115.5
852.703	18222.9
852.838	18379.1
852.973	18634.9
853.107	18571.8
853.242	18162.1
853.376	17975.1
853.511	17552.8
853.645	17863.2
853.78	18509
853.914	17993.6
854.048	17915.4
854.183	17745
854.317	18045.2
854.451	18584.7
854.585	17937.3
854.72	17769.2
854.854	18326.9
854.988	17604.6
855.122	18067
855.256	17474.5
855.39	17884.3
855.524	18092.1
855.658	17938.1
855.792	18075.5
855.926	18102.6
856.06	18112.2
856.194	18274.2
856.327	17931.4
856.461	17836.6
856.595	17918.4
856.729	17926.1
856.862	18307.2
856.996	17958.5
857.13	18274.6
857.263	18364.7
857.397	18386.4
857.53	18026.9
857.664	18247.5
857.797	18361
857.931	18318.8
858.064	18156.8
858.197	18502.1
858.331	18077.4
858.464	17860.4
858.597	17749.4
858.731	18128.8
858.864	18028.3
858.997	18042.5
859.13	18242
859.263	18255.8
859.396	18488.8
859.529	18101.5
859.662	18149.7
859.795	17927.6
859.928	18270.1
860.061	18663
860.194	18770.3
860.327	18392.5
860.46	18170.4
860.592	18494.1
860.725	18546.5
860.858	18517.8
860.99	18038.3
861.123	17975.6
861.256	17990.4
861.388	18265.8
861.521	24890.1
861.653	17946.6
861.786	17820.4
861.918	17899.4
862.05	18025.8
862.183	18251.1
862.315	18328.2
862.447	18479.2
862.58	18237.9
862.712	17810.1
862.844	17626.4
862.976	18121.9
863.108	18002.1
863.24	21860.2
863.372	17706.9
863.504	17991.4
863.636	17911.2
863.768	18262.4
863.9	18116.6
864.032	17914.7
864.164	17931.4
864.296	18217.5
864.428	18375
864.559	18399.5
864.691	18502.9
864.823	18481.9
864.954	18467.8
865.086	18536.8
865.217	18443.5
865.349	18342.9
865.48	18482.8
865.612	18615.1
865.743	19212.8
865.875	18609.8
866.006	18482.4
866.137	18741.7
866.269	18626
866.4	18580
866.531	18564
866.662	18577.5
866.793	18655.4
866.924	18753.6
867.055	18940.4
867.186	18916.7
867.317	18790.4
867.448	18729.9
867.579	19090.3
867.71	19000.9
867.841	19009.3
867.972	19316.6
868.103	19291.1
868.233	19356.7
868.364	19453.9
868.495	19623
868.625	20137.9
868.756	20654
868.886	20035
869.017	20345.8
869.147	20921
869.278	20724.3
869.408	20513.2
869.539	20454.6
869.669	20896.2
869.799	20700.9
869.929	20889.6
870.06	21037.5
870.19	21832.7
870.32	21670.6
870.45	21863.5
870.58	22081.5
870.71	22329.1
870.84	22291.6
870.97	22041
871.1	21943.5
871.23	22770.7
871.36	22839.8
871.489	22547.3
871.619	22781.1
871.749	22930.5
871.879	23092
872.008	23404.6
872.138	23016.5
872.267	22953.5
872.397	22797.4
872.526	22725.8
872.656	22634.8
872.785	22872.9
872.915	23527.7
873.044	23827.4
873.173	23651.2
873.303	23917.7
873.432	24081.2
873.561	24341
873.69	24045.9
873.819	23992.6
873.948	24304.2
874.077	24379.2
874.206	24342.5
874.335	24538.7
874.464	25066.4
874.593	25665.5
874.722	25548.7
874.851	25952.8
874.979	25917.3
875.108	26088.8
875.237	25875.2
875.365	25714.6
875.494	25958.4
875.623	26554.1
875.751	26174.3
875.88	26552.2
876.008	26913.5
876.136	27050
876.265	27613.4
876.393	28124.2
876.521	28105.6
876.65	28137.9
876.778	28107
876.906	27847.5
877.034	27903.5
877.162	28083
877.29	28028.3
877.418	28392.1
877.546	28534.3
877.674	28849.6
877.802	28756.5
877.93	28720.3
878.058	28647
878.185	28616.8
878.313	28948.9
878.441	29012.5
878.568	28685
878.696	28930.4
878.824	29202.7
878.951	29278.7
879.079	29507.6
879.206	29758.9
879.333	29307.1
879.461	28965
879.588	29085.9
879.715	29191.6
879.842	29785.7
879.97	28901.9
880.097	28025.7
880.224	27892.4
880.351	27989.9
880.478	27924.8
880.605	27893.2
880.732	27793.9
880.859	28763.3
880.986	27872.3
881.112	28016.9
881.239	27688.4
881.366	27305.6
881.493	27108.7
881.619	26792.4
881.746	26876.6
881.872	26954.9
881.999	26803.7
882.125	26831.7
882.252	27086.4
882.378	27102.3
882.505	27392.2
882.631	26785.4
882.757	26486.3
882.883	26769.2
883.01	26525.4
883.136	26345.5
883.262	26086.1
883.388	26025.5
883.514	26457.9
883.64	26522.8
883.766	26511.3
883.892	26062
884.018	26087.1
884.143	26458.5
884.269	26852.2
884.395	25840.2
884.52	25507.6
884.646	25601.6
884.772	25461.7
884.897	25279
885.023	25548.1
885.148	25844
885.274	26088.3
885.399	25836.8
885.524	25530.8
885.65	25583.4
885.775	25549.8
885.9	25475.6
886.025	25714.7
886.15	25543.3
886.275	25189.6
886.4	24947.4
886.525	25243.6
886.65	25032.8
886.775	25054.6
886.9	25653.1
887.025	25796.3
887.149	25198.7
887.274	24707.3
887.399	24656
887.523	24629.6
887.648	24427.3
887.773	24434.6
887.897	24995.9
888.021	25088.1
888.146	24652
888.27	25369.8
888.395	25363.1
888.519	24843.8
888.643	24788.5
888.767	24862.3
888.891	24420.5
889.015	24226.2
889.139	24427.9
889.263	24221.2
889.387	24609.3
889.511	24792.4
889.635	24708.7
889.759	24166.1
889.883	24156.5
890.006	24230.1
890.13	24647.7
890.254	24093.4
890.377	24259
890.501	23753.9
890.624	23725.2
890.748	24025.2
890.871	23538.8
890.995	23362.7
891.118	23185.6
891.241	23496
891.364	23545.6
891.488	23837.6
891.611	23461.9
891.734	23513.2
891.857	23599.2
891.98	23455.4
892.103	23781.9
892.226	23595.9
892.349	23733.5
892.471	23050.1
892.594	23396.9
892.717	23472.1
892.839	23283
892.962	23423.5
893.085	23698.8
893.207	23383.5
893.33	22953.2
893.452	22955.8
893.575	23408.1
893.697	23100.2
893.819	23648.3
893.941	23813.9
894.064	23786.8
894.186	23145.8
894.308	23011.3
894.43	23577.5
894.552	23936.3
894.674	23780.7
894.796	23042.5
894.918	23179.2
895.04	22982.1
895.161	23195.6
895.283	23158.2
895.405	22750.1
895.526	22902.1
895.648	22942.1
895.769	23041.5
895.891	23133.1
896.012	23309.7
896.134	23019.3
896.255	22794.1
896.376	22557.6
896.498	22756.7
896.619	22702.2
896.74	22562.4
896.861	22812.9
896.982	23505.9
897.103	23851.2
897.224	23190.5
897.345	22822.5
897.466	22588.7
897.587	22759.9
897.708	23027.7
897.828	22707.1
897.949	22561.4
898.07	22199.7
898.19	22350.6
898.311	22851.7
898.431	22349
898.552	22559.4
898.672	22828.4
898.792	22750.4
898.913	22601.6
899.033	22207.5
899.153	21860.9
899.273	21623.3
899.393	21814.4
899.513	21992.1
899.633	21856.3
899.753	21964.1
899.873	21754.3
899.993	22064.7
900.113	21884.1
900.232	21980.8
900.352	21871.1
900.472	21600.6
900.591	21315.8
900.711	21457.2
900.83	21329.9
900.95	21874.3
901.069	22055
901.189	21563.2
901.308	21103.8
901.427	21004.3
901.546	21127.7
901.665	21388.4
901.784	21416.4
901.904	21004.1
902.023	20881.5
902.141	20463.9
902.26	20430.4
902.379	20809.6
902.498	20554.6
902.617	20590.4
902.735	20962.4
902.854	20894.6
902.973	21031.9
903.091	20393.9
903.21	20346.3
903.328	20535
903.446	20491.8
903.565	20322.4
903.683	20478.6
903.801	20302
903.919	20615.7
904.038	20697.4
904.156	20247.8
904.274	20621
904.392	20527.3
904.51	20563.8
904.627	20720.5
904.745	20809.3
904.863	20977.2
904.981	20335.1
905.098	20170.4
905.216	20373.7
905.334	20437.4
905.451	20482.1
905.569	20419.8
905.686	20764.7
905.803	20639.6
905.921	20238.1
906.038	20572.7
906.155	20466.1
906.272	20077.1
906.389	20224.5
906.506	19990
906.623	19985.5
906.74	19930.3
906.857	19719.3
906.974	19878.2
907.091	20483.6
907.208	20764.9
907.324	20384.8
907.441	20109.8
907.557	19747.8
907.674	19835.1
907.79	19597.3
907.907	19665.1
908.023	19928.4
908.139	19870.1
908.256	19844.3
908.372	19868.5
908.488	19737
908.604	19518.4
908.72	19361.5
908.836	19624.1
908.952	19581.6
909.068	19574.7
909.184	19992.5
909.3	19674.6
909.415	19874.7
909.531	20078.8
909.647	19227.6
909.762	19268.4
909.878	19226.5
909.993	19448.6
910.108	19311.5
910.224	19211.6
910.339	19553.4
910.454	19250.5
910.57	19025.4
910.685	18851.1
910.8	20073
910.915	19599
911.03	19340.7
911.145	18851.1
911.259	18782.9
911.374	18914.6
911.489	18576.5
911.604	18564.2
911.718	18171.9
911.833	18392.1
911.947	17955.2
912.062	17758.8
912.176	18186.3
912.291	18290.2
912.405	18222.5
912.519	18879.5
912.633	19056.3
912.748	18574.6
912.862	18463.9
912.976	18074.5
913.09	17749.2
913.204	18129.2
913.318	18177.9
913.431	18438.5
913.545	18573.2
913.659	18782.5
913.772	18556.2
913.886	18224
914	18038.4
914.113	18397
914.226	18568
914.34	18482.2
914.453	17943.7
914.566	18552.9
914.68	18103.7
914.793	18195.3
914.906	17657.5
915.019	17649
915.132	17446
915.245	17742.3
915.358	17834.3
915.47	17900.2
915.583	17910.5
915.696	17943
915.809	18359.3
915.921	18536.7
916.034	17936.5
916.146	17950.9
916.259	17766.5
916.371	18141.1
916.483	18146.3
916.595	17914.6
916.708	18046.6
916.82	18006.7
916.932	17797.5
917.044	17973.1
917.156	18091.3
917.268	17732.6
917.38	17781.5
917.491	17734.7
917.603	17951.9
917.715	18000.7
917.826	18302.7
917.938	17818.3
918.049	17590.9
918.161	18027.4
918.272	18315.2
918.384	18414.6
918.495	18068.5
918.606	17622.9
918.717	17502.2
918.828	17848.3
918.939	17907.2
919.05	17603.8
919.161	17940.6
919.272	17127.6
919.383	17304.7
919.494	17967.6
919.604	18850.1
919.715	18119.1
919.826	17953.5
919.936	18287.5
920.047	18795.7
920.157	18346.5
920.267	19427.7
920.378	18759.6
920.488	18616.9
920.598	19706.6
920.708	20050.7
920.818	19729
920.928	19780.2
921.038	20607.3
921.148	20302.1
921.258	19193.3
921.368	19166
921.477	18567.3
921.587	18446.5
921.697	17902.1
921.806	18284.1
921.916	17829.7
922.025	17210.3
922.134	17062.8
922.244	16983.2
922.353	17263.5
922.462	16846.7
922.571	16790.4
922.68	16339.1
922.789	16212.5
922.898	16483.3
923.007	16094.8
923.116	16416.4
923.224	16355.9
923.333	16388.6
923.442	16150.5
923.55	16059.7
923.659	16102.3
923.767	16313.2
923.876	15984.8
923.984	16264.9
924.092	15894.3
924.201	16161
924.309	16172
924.417	16235.7
924.525	15939.2
924.633	16088.8
924.741	20446.8
924.849	15650.1
924.956	16158.1
925.064	15569
925.172	15481.6
925.279	15517.6
925.387	15843.6
925.494	15728.8
925.602	16171
925.709	16111.6
925.816	15640.7
925.924	15756.5
926.031	16072.7
926.138	15926.1
926.245	16209
926.352	15697.2
926.459	16141.3
926.566	16182.3
926.673	15840.3
926.779	15598
926.886	15603.7
926.993	15206.1
927.099	15115.6
927.206	15098
927.312	14940.5
927.419	15325.3
927.525	15205.2
927.631	15293.9
927.737	15011
927.843	14893.7
927.95	14604.5
928.056	14799
928.162	14894.4
928.267	15061.4
928.373	18172.4
928.479	15214.2
928.585	14598.8
928.69	15052
928.796	15033
928.901	14762.5
929.007	14365.6
929.112	14751.1
929.218	14651.3
929.323	14657.6
929.428	14389.5
929.533	15107.2
929.638	14362.1
929.743	14660.8
929.848	14707.7
929.953	14633.8
930.058	14301.7
930.163	13837.2
930.267	14051.3
930.372	14491.7
930.477	13891.9
930.581	14644.7
930.685	14319.8
930.79	13873.4
930.894	14144.5
930.998	13988.2
931.103	14858.6
931.207	13463.9
931.311	13291.2
931.415	13215.4
931.519	12800.6
931.623	13079.5
