Data from laser3s10a1_V78500241_19.txt Node
Date: Fri Aug 28 13:37:30 CST 2020
User: usil
Spectrometer: V785-0024
Trigger mode: 0
Integration Time (sec): 3.000000E0
Scans to average: 10
Nonlinearity correction enabled: false
Boxcar width: 0
Storing dark spectrum: false
XAxis mode: Wavelengths
Number of Pixels in Spectrum: 1024
>>>>>Begin Spectral Data<<<<<
801.071	33367.7
801.214	33366.6
801.356	33232.6
801.499	33337.3
801.641	33505.1
801.783	33838.4
801.926	34287.3
802.068	34158.3
802.211	34170.2
802.353	34224.1
802.496	33934.9
802.638	34208
802.78	34322.3
802.923	34504.5
803.065	34368.5
803.208	34405.7
803.35	34595.9
803.492	34513.7
803.635	34457.4
803.777	33787
803.919	34367.6
804.061	35754.4
804.204	34764.8
804.346	34767.9
804.488	34772.4
804.63	35300.5
804.773	35000.3
804.915	35001.2
805.057	35464.6
805.199	35062
805.341	35176.3
805.483	35236.7
805.626	35278.5
805.768	35302.8
805.91	35831.2
806.052	36128.5
806.194	36005.2
806.336	36853.7
806.478	36640.2
806.62	37129.5
806.762	37725.5
806.904	38036.9
807.046	38164.7
807.188	37295.5
807.33	36726.1
807.472	36443.7
807.614	35414.7
807.756	35224.1
807.898	34976.7
808.04	35695.7
808.182	36779.4
808.324	37422.8
808.465	37384.4
808.607	36945.9
808.749	36005.7
808.891	35480.4
809.033	35563.5
809.174	35658.3
809.316	35865.7
809.458	36163.4
809.6	35554.3
809.741	35343.4
809.883	35148.8
810.025	35628.9
810.166	35037.1
810.308	34266
810.45	33351.5
810.591	32430.1
810.733	32078
810.875	32444.3
811.016	32683.9
811.158	32614.1
811.299	32426.5
811.441	32355.6
811.582	32137.7
811.724	32105.8
811.865	32436.3
812.007	33171.4
812.148	33638
812.29	34231.9
812.431	34879.3
812.573	35591.3
812.714	36400.4
812.855	36926
812.997	36877.2
813.138	37220.5
813.279	36599.4
813.421	35950.9
813.562	34942
813.703	33744.7
813.845	33076.6
813.986	32122.5
814.127	31594
814.268	31309.8
814.41	31121.8
814.551	30639.5
814.692	30741.8
814.833	29950
814.974	29700.4
815.115	29461.8
815.256	28615
815.397	28072.8
815.539	27658.9
815.68	27013.5
815.821	26946.4
815.962	27308.5
816.103	26726
816.244	26185.4
816.385	26014.8
816.526	26221
816.666	26011
816.807	25849.3
816.948	26450.3
817.089	26802
817.23	26496.1
817.371	26171.2
817.512	26262
817.653	26400.5
817.793	26149.5
817.934	25940.2
818.075	26289.8
818.216	26114.2
818.356	26234.4
818.497	26116.7
818.638	26045.7
818.778	26464.1
818.919	26748.8
819.06	27096
819.2	27642.5
819.341	27749
819.481	27683.6
819.622	27855.1
819.762	28324.5
819.903	27961.1
820.043	27489.3
820.184	27254.3
820.324	26931.1
820.465	26847.6
820.605	26430.7
820.746	26179.6
820.886	25740.2
821.026	26299.7
821.167	25694.2
821.307	25704.5
821.447	25178.2
821.588	24496.4
821.728	24080.4
821.868	23549.6
822.008	22832.2
822.149	22727.5
822.289	22736.9
822.429	21895.5
822.569	21633.6
822.709	21582.3
822.849	20888
822.99	20708.8
823.13	20558.5
823.27	20608.3
823.41	20273.5
823.55	20265.3
823.69	20043.6
823.83	20150.7
823.97	19880.5
824.11	19545.3
824.25	19282.8
824.389	19427.9
824.529	19466
824.669	19076.2
824.809	19421
824.949	19530.8
825.089	19411.5
825.228	19262.2
825.368	18544
825.508	18456
825.648	18433.6
825.787	18388.7
825.927	18418.3
826.067	18222
826.206	18114
826.346	18284.3
826.485	18103.1
826.625	18181.5
826.765	18817.5
826.904	18547.4
827.044	17822.1
827.183	17729.4
827.323	17521.1
827.462	17859.4
827.601	17687.4
827.741	17654.2
827.88	17918.7
828.02	17557.3
828.159	17747.5
828.298	17844.3
828.437	18045.6
828.577	17718.5
828.716	18257.1
828.855	17888.3
828.994	17538.5
829.134	17558.2
829.273	17607.9
829.412	17447
829.551	17302.5
829.69	17427.6
829.829	17709.2
829.968	18100.7
830.107	17787.1
830.246	17864.3
830.385	17651.2
830.524	17507.5
830.663	17181.3
830.802	17008.5
830.941	16770.7
831.08	16785.5
831.219	16954.7
831.357	16878.6
831.496	17606.8
831.635	16657.7
831.774	16441.6
831.913	16461.2
832.051	16083.5
832.19	16075.9
832.329	16273.8
832.467	15989.5
832.606	15737.7
832.744	15931.3
832.883	15928.6
833.022	15861.7
833.16	16014.4
833.299	16054
833.437	16076.7
833.576	16163
833.714	16139.4
833.852	16320.8
833.991	16243.2
834.129	16349.8
834.267	16350.2
834.406	16220
834.544	16233.8
834.682	16416.7
834.821	16415.1
834.959	17367.5
835.097	16467
835.235	16930.4
835.373	16670
835.511	16626.5
835.65	16413.3
835.788	16763.7
835.926	16181.6
836.064	16066
836.202	16150.3
836.34	16940.2
836.478	17042.6
836.615	16861.4
836.753	17126.5
836.891	17351
837.029	17219
837.167	17253.9
837.305	17215.5
837.443	17115.4
837.58	17100.1
837.718	17584.4
837.856	17429.6
837.993	17328.4
838.131	17575.3
838.269	17575.7
838.406	17598.1
838.544	17585.9
838.681	17124.7
838.819	16963.4
838.956	16550.7
839.094	16571.6
839.231	16707.7
839.369	16991.3
839.506	17942.1
839.643	17414.6
839.781	16718.4
839.918	16574.6
840.055	16767.9
840.193	16751.9
840.33	16692.8
840.467	16775.9
840.604	17005
840.742	18170.2
840.879	16647.7
841.016	16766.7
841.153	16741.2
841.29	17378.1
841.427	17048.1
841.564	17080.5
841.701	17023.3
841.838	16783.9
841.975	16658.7
842.112	16704.2
842.249	16365.8
842.385	16321.7
842.522	17439.4
842.659	16444.6
842.796	16320.3
842.933	16392.6
843.069	16448.4
843.206	16330.4
843.343	16607.7
843.479	16548.8
843.616	16675.9
843.752	16001.9
843.889	16105.2
844.025	17013.7
844.162	16126.2
844.298	16592.9
844.435	16247.9
844.571	16166
844.708	16574.1
844.844	16796.3
844.98	16903.4
845.117	16856.2
845.253	16398.8
845.389	16290.4
845.525	16477.9
845.661	16429.5
845.798	16258.9
845.934	16429.8
846.07	16210.5
846.206	16570.6
846.342	16842.1
846.478	16466.5
846.614	16046.2
846.75	15865.1
846.886	15708.3
847.022	16233.6
847.158	15924.4
847.294	15902.7
847.429	15934
847.565	15733.4
847.701	17397.2
847.837	15259.5
847.972	15118.2
848.108	15743.9
848.244	15619.6
848.379	14966.1
848.515	14693.9
848.65	14671.6
848.786	14833.1
848.921	14836.5
849.057	15131.8
849.192	15201.8
849.328	14955.1
849.463	14999.1
849.598	14802.8
849.734	14736.2
849.869	14605.6
850.004	14353.5
850.14	14492.8
850.275	14362.9
850.41	14205.5
850.545	14243.5
850.68	14266.7
850.815	14368.3
850.95	14278.2
851.085	14966.7
851.22	14624.7
851.355	14481.2
851.49	14250.7
851.625	14167.8
851.76	14185.7
851.895	13945.5
852.03	13959.7
852.165	14207.4
852.299	14380.4
852.434	14737.6
852.569	14362.2
852.703	14503.5
852.838	14632.7
852.973	14928.3
853.107	14813.5
853.242	14440.6
853.376	14268.6
853.511	13785.3
853.645	14151.4
853.78	14714.9
853.914	14208.2
854.048	14180
854.183	14001.8
854.317	14297.8
854.451	14787.4
854.585	14179.1
854.72	13976.8
854.854	14568.6
854.988	13830.3
855.122	14211
855.256	13608.4
855.39	14036.5
855.524	14248.7
855.658	14153.5
855.792	14156.4
855.926	14209.6
856.06	14207
856.194	14315
856.327	13929.2
856.461	13841.7
856.595	13909.5
856.729	13891.6
856.862	14259
856.996	13890.1
857.13	14198
857.263	14279.9
857.397	14266.3
857.53	13889.6
857.664	14060.5
857.797	14170.8
857.931	14136.3
858.064	13985
858.197	14284.9
858.331	13886.7
858.464	13618.5
858.597	13450.7
858.731	13848.1
858.864	13712.8
858.997	13704.7
859.13	13868.7
859.263	13870.6
859.396	14132.4
859.529	13683.5
859.662	13727.9
859.795	13503.4
859.928	13808.6
860.061	14212.7
860.194	14243.6
860.327	13876
860.46	13650.5
860.592	13973.4
860.725	13948.6
860.858	13907.9
860.99	13452
861.123	13368.3
861.256	13328
861.388	13595.3
861.521	20167.8
861.653	13210.2
861.786	13087.8
861.918	13179.3
862.05	13280.5
862.183	13498.3
862.315	13554.4
862.447	13687.2
862.58	13478.8
862.712	13017
862.844	12826.6
862.976	13255.8
863.108	13138
863.24	15355.6
863.372	12808.8
863.504	13049.6
863.636	12964.5
863.768	13283.2
863.9	13112.2
864.032	12897.1
864.164	12929.6
864.296	13164.4
864.428	13295.7
864.559	13310.6
864.691	13366
864.823	13286.9
864.954	13269.1
865.086	13405
865.217	13254.2
865.349	13143.1
865.48	13314.1
865.612	13413.8
865.743	13928.1
865.875	13297.6
866.006	13184.2
866.137	13367.7
866.269	13248.9
866.4	13204.4
866.531	13170.4
866.662	13176.6
866.793	13220.1
866.924	13287.7
867.055	13472
867.186	13398.1
867.317	13268
867.448	13152
867.579	13461.3
867.71	13382.4
867.841	13325.1
867.972	13605.5
868.103	13542.4
868.233	13609.6
868.364	13625.2
868.495	13756.4
868.625	14208.1
868.756	14702.3
868.886	14033
869.017	14307
869.147	14823.3
869.278	14592
869.408	14326.7
869.539	14245.7
869.669	14642.3
869.799	14386.1
869.929	14577.1
870.06	14624.4
870.19	15370.5
870.32	15131.4
870.45	15259.2
870.58	15478.9
870.71	15587.7
870.84	15511.6
870.97	15194.7
871.1	15043.3
871.23	15784.5
871.36	15762.1
871.489	15466.3
871.619	15669.9
871.749	15643
871.879	15724.8
872.008	15970.4
872.138	15508.5
872.267	15310.2
872.397	15118.9
872.526	14982.3
872.656	14711.5
872.785	14933.6
872.915	15364.7
873.044	15606.5
873.173	15293.2
873.303	15430.2
873.432	15469.9
873.561	15589.8
873.69	15209.9
873.819	15040.8
873.948	15243.4
874.077	15180.4
874.206	14969.4
874.335	15031.1
874.464	15440.2
874.593	15919.9
874.722	15581.5
874.851	15860.5
874.979	15771.9
875.108	15778.3
875.237	15389.5
875.365	15088.4
875.494	15186.8
875.623	15623.9
875.751	15051.7
875.88	15378.1
876.008	15549.8
876.136	15550
876.265	16020.9
876.393	16403.2
876.521	16235.3
876.65	16128.4
876.778	15917.8
876.906	15659.9
877.034	15523.4
877.162	15621.4
877.29	15500.9
877.418	15696.9
877.546	15760.5
877.674	15968.5
877.802	15843.2
877.93	15703
878.058	15506.5
878.185	15432.1
878.313	15724.5
878.441	15747.1
878.568	15391.3
878.696	15539.1
878.824	15712.4
878.951	15822.5
879.079	16054.9
879.206	16349
879.333	15816.8
879.461	15528.3
879.588	15552.7
879.715	15760.2
879.842	16349.3
879.97	15368.9
880.097	14559.6
880.224	14434.7
880.351	14547.9
880.478	14493.5
880.605	14485.1
880.732	14413.6
880.859	15370.3
880.986	14549.1
881.112	14744.6
881.239	14462.7
881.366	14064.2
881.493	13921.6
881.619	13735.6
881.746	13836.7
881.872	13976
881.999	13866.2
882.125	13997.3
882.252	14289.4
882.378	14384.6
882.505	14666.5
882.631	14225.8
882.757	13898.4
882.883	14172.7
883.01	14024
883.136	13873.6
883.262	13648.4
883.388	13607.9
883.514	14080.6
883.64	14173.9
883.766	14277
883.892	13866.8
884.018	13939.2
884.143	14318.2
884.269	14783.7
884.395	13821.9
884.52	13495.5
884.646	13675.5
884.772	13577.7
884.897	13441.5
885.023	13683.5
885.148	14135.5
885.274	14364.5
885.399	14221.9
885.524	13855.1
885.65	14002
885.775	14021
885.9	13955.1
886.025	14238.2
886.15	14063.6
886.275	13760.7
886.4	13526.6
886.525	13867.8
886.65	13681.9
886.775	13711.9
886.9	14311.5
887.025	14569.5
887.149	13921.2
887.274	13471.1
887.399	13411.1
887.523	13405.4
887.648	13273.5
887.773	13293.2
887.897	13861.4
888.021	13911.9
888.146	13563.9
888.27	14294.5
888.395	14393.4
888.519	13872.5
888.643	13855.8
888.767	13910.4
888.891	13498.6
889.015	13282.8
889.139	13480.6
889.263	13291.1
889.387	13739.1
889.511	13969.4
889.635	13846.5
889.759	13351.6
889.883	13345.9
890.006	13498.1
890.13	13881.3
890.254	13350.9
890.377	13497.8
890.501	13032.1
890.624	13002.4
890.748	13346.7
890.871	12869
890.995	12726.2
891.118	12572.4
891.241	12974
891.364	13041.7
891.488	13321.6
891.611	12964
891.734	13022.5
891.857	13124.1
891.98	12980.3
892.103	13386
892.226	13141.5
892.349	13312.9
892.471	12645.5
892.594	13058
892.717	13135.9
892.839	13040.8
892.962	13208.3
893.085	13474.6
893.207	13155.2
893.33	12767.6
893.452	12791.8
893.575	13249.3
893.697	12997.2
893.819	13530.5
893.941	13706.3
894.064	13735
894.186	13125.1
894.308	13037.9
894.43	13591.4
894.552	13985.4
894.674	13880.1
894.796	13184.2
894.918	13341.7
895.04	13170.3
895.161	13379.9
895.283	13375.3
895.405	12974.2
895.526	13194.2
895.648	13246.5
895.769	13333.3
895.891	13468.3
896.012	13635.9
896.134	13399.2
896.255	13190.5
896.376	13033.9
896.498	13163
896.619	13191.1
896.74	13059.5
896.861	13294.9
896.982	14014.4
897.103	14383.5
897.224	13723.5
897.345	13388.5
897.466	13211.3
897.587	13400
897.708	13699.5
897.828	13423.8
897.949	13276.6
898.07	12938
898.19	13045.8
898.311	13591.8
898.431	13081
898.552	13263.3
898.672	13595.2
898.792	13544.2
898.913	13396.9
899.033	13005.5
899.153	12679.4
899.273	12440.8
899.393	12689.2
899.513	12814.4
899.633	12733.7
899.753	12866.7
899.873	12692.3
899.993	13004.2
900.113	12824.4
900.232	12966.6
900.352	12874.6
900.472	12679.7
900.591	12359.2
900.711	12535.1
900.83	12411.6
900.95	12885
901.069	13137.4
901.189	12700.3
901.308	12264.3
901.427	12223.1
901.546	12374.1
901.665	12632.1
901.784	12662.6
901.904	12331.3
902.023	12198.5
902.141	11807.7
902.26	11868.9
902.379	12271.1
902.498	12008.4
902.617	12034.7
902.735	12433.6
902.854	12375
902.973	12532.6
903.091	11906.9
903.21	11895.9
903.328	12121
903.446	12131.5
903.565	11968.1
903.683	12235.1
903.801	12061.6
903.919	12391.5
904.038	12467.3
904.156	12055.1
904.274	12447.6
904.392	12361.2
904.51	12433.9
904.627	12618.5
904.745	12726.5
904.863	12947.4
904.981	12288.9
905.098	12152.8
905.216	12376.8
905.334	12447.7
905.451	12521.5
905.569	12524.1
905.686	12838.7
905.803	12782.8
905.921	12365.2
906.038	12761.9
906.155	12634.8
906.272	12249.8
906.389	12416
906.506	12247.9
906.623	12255.9
906.74	12249.8
906.857	12076.4
906.974	12260.4
907.091	12877.7
907.208	13163.7
907.324	12817.9
907.441	12570.2
907.557	12187.3
907.674	12306.2
907.79	12056.5
907.907	12187.8
908.023	12482
908.139	12483
908.256	12441.2
908.372	12495.6
908.488	12445
908.604	12268.8
908.72	12078
908.836	12413.8
908.952	12333.9
909.068	12337.8
909.184	12824.8
909.3	12513.9
909.415	12744.5
909.531	12965.8
909.647	12153.9
909.762	12243.6
909.878	12230.4
909.993	12514.3
910.108	12404
910.224	12289.8
910.339	12663.7
910.454	12380
910.57	12201.2
910.685	12033.2
910.8	13260.2
910.915	12793.9
911.03	12628.4
911.145	12133.2
911.259	12103.1
911.374	12243.8
911.489	11931.8
911.604	11936.6
911.718	11587.9
911.833	11823.6
911.947	11418.9
912.062	11248.2
912.176	11658.5
912.291	11789.6
912.405	11786.1
912.519	12420.6
912.633	12632.2
912.748	12195
912.862	12054.3
912.976	11744
913.09	11426.1
913.204	11801.2
913.318	11893.1
913.431	12151.4
913.545	12272.3
913.659	12518.8
913.772	12283.7
913.886	12012
914	11764.3
914.113	12180.1
914.226	12328.2
914.34	12265.5
914.453	11810
914.566	12415
914.68	11952
914.793	12036.7
914.906	11602.4
915.019	11539.9
915.132	11397.1
915.245	11702.3
915.358	11735.5
915.47	11883.3
915.583	11867.4
915.696	11946.7
915.809	12338.1
915.921	12522.5
916.034	11932.5
916.146	11969
916.259	11846.1
916.371	12228.5
916.483	12214.7
916.595	12047
916.708	12116.1
916.82	12130.8
916.932	11888.8
917.044	12097.6
917.156	12223.6
917.268	11842
917.38	11927.6
917.491	11913.9
917.603	12100.8
917.715	12203
917.826	12445.8
917.938	12045.6
918.049	11759.5
918.161	12251.3
918.272	12528.7
918.384	12628
918.495	12291
918.606	11842.7
918.717	11745.6
918.828	12087.3
918.939	12188.3
919.05	11898.3
919.161	12285.3
919.272	11437.5
919.383	11618
919.494	12362.8
919.604	13199.2
919.715	12531.4
919.826	12348.9
919.936	12693
920.047	13191.1
920.157	12722.8
920.267	13819.7
920.378	13171.8
920.488	13041.7
920.598	14114.9
920.708	14486
920.818	14197.7
920.928	14251.2
921.038	15066.8
921.148	14822.8
921.258	13767.6
921.368	13680.8
921.477	13170
921.587	13050.8
921.697	12499.1
921.806	12902.2
921.916	12485
922.025	11854.9
922.134	11743
922.244	11650.6
922.353	11959.1
922.462	11542.7
922.571	11537
922.68	11115.6
922.789	11021.6
922.898	11368.6
923.007	10963
923.116	11385.3
923.224	11246.6
923.333	11337
923.442	11103.5
923.55	10989.4
923.659	11112.5
923.767	11347.8
923.876	11048.6
923.984	11366.7
924.092	10975.2
924.201	11273
924.309	11300.1
924.417	11405.9
924.525	11142.2
924.633	11305.9
924.741	16049.6
924.849	10875.5
924.956	11439.5
925.064	10903
925.172	10816
925.279	10841.6
925.387	11210.4
925.494	11117.9
925.602	11634.4
925.709	11593.2
925.816	11108.4
925.924	11298.1
926.031	11591.9
926.138	11507.8
926.245	11812.6
926.352	11266.7
926.459	11759.4
926.566	11834.2
926.673	11485.9
926.779	11304.7
926.886	11326.8
926.993	10980.6
927.099	10844
927.206	10828
927.312	10772
927.419	11224.1
927.525	11082.5
927.631	11260.8
927.737	10974.9
927.843	10808.4
927.95	10572.6
928.056	10853.4
928.162	10917.5
928.267	11126.2
928.373	13904.1
928.479	11341.9
928.585	10708
928.69	11201.5
928.796	11200.2
928.901	10946
929.007	10590.4
929.112	11007.8
929.218	10931.1
929.323	10976.7
929.428	10768.4
929.533	11468.3
929.638	10777.3
929.743	11091
929.848	11123.4
929.953	11028.9
930.058	10759.1
930.163	10350.2
930.267	10551
930.372	11030.5
930.477	10462.8
930.581	11211.4
930.685	10923.6
930.79	10514.6
930.894	10824
930.998	10699.3
931.103	11619.5
931.207	10248.6
931.311	10146.8
931.415	10046.9
931.519	9667
931.623	9989.1
