Data from laser3s10a1_V78500241_8.txt Node
Date: Fri Aug 28 13:31:59 CST 2020
User: usil
Spectrometer: V785-0024
Trigger mode: 0
Integration Time (sec): 3.000000E0
Scans to average: 10
Nonlinearity correction enabled: false
Boxcar width: 0
Storing dark spectrum: false
XAxis mode: Wavelengths
Number of Pixels in Spectrum: 1024
>>>>>Begin Spectral Data<<<<<
801.071	33445.3
801.214	33463.4
801.356	33332.6
801.499	33493.3
801.641	33585.4
801.783	33909.2
801.926	34379.3
802.068	34222.8
802.211	34200.3
802.353	34213.4
802.496	33878.5
802.638	34142.4
802.78	34359.6
802.923	34535
803.065	34404
803.208	34489.6
803.35	34621.4
803.492	34635.4
803.635	34566.7
803.777	33937.6
803.919	34360.9
804.061	35788.2
804.204	34799.9
804.346	34835.7
804.488	34836.2
804.63	35390.7
804.773	35053.5
804.915	35158.7
805.057	35598
805.199	35159.7
805.341	35271.3
805.483	35274.3
805.626	35347.2
805.768	35341.2
805.91	35912.5
806.052	36188.2
806.194	36052.6
806.336	36855.2
806.478	36643.3
806.62	37027
806.762	37726.8
806.904	38073.6
807.046	38145.8
807.188	37228.7
807.33	36670.5
807.472	36433.2
807.614	35384.7
807.756	35282
807.898	35060.4
808.04	35684
808.182	36718.4
808.324	37449.4
808.465	37433.2
808.607	36967.4
808.749	36086.9
808.891	35477.1
809.033	35601.1
809.174	35640.7
809.316	35788.3
809.458	36023.1
809.6	35566
809.741	35291.8
809.883	35156.9
810.025	35584.6
810.166	35065
810.308	34258.8
810.45	33324.7
810.591	32406.9
810.733	32007.1
810.875	32443.9
811.016	32609.4
811.158	32584.3
811.299	32404.4
811.441	32342
811.582	32157
811.724	32136.9
811.865	32420.4
812.007	33089.4
812.148	33606.9
812.29	34172.2
812.431	34791.1
812.573	35478.9
812.714	36267.1
812.855	36825.8
812.997	36736.4
813.138	37049.4
813.279	36430.8
813.421	35724.9
813.562	34861.2
813.703	33606
813.845	33028
813.986	32032.9
814.127	31544.2
814.268	31297.6
814.41	31099.8
814.551	30557.6
814.692	30706.1
814.833	29964.5
814.974	29681.5
815.115	29434.5
815.256	28565.9
815.397	27972.6
815.539	27609.3
815.68	26965.3
815.821	26939.7
815.962	27316.9
816.103	26787.7
816.244	26197.9
816.385	26027.4
816.526	26270.9
816.666	26020.4
816.807	25909.2
816.948	26475.6
817.089	26807.4
817.23	26493.4
817.371	26205.2
817.512	26290.6
817.653	26331.7
817.793	26083.3
817.934	25993.1
818.075	26272.8
818.216	26109.8
818.356	26206.7
818.497	26087.2
818.638	26068.1
818.778	26422.3
818.919	26680.7
819.06	26982.5
819.2	27605.8
819.341	27680
819.481	27573.7
819.622	27769.2
819.762	28244
819.903	27877.6
820.043	27484.3
820.184	27189.4
820.324	26865.2
820.465	26745
820.605	26272.4
820.746	26152.9
820.886	25695.1
821.026	26237.2
821.167	25662.1
821.307	25660.2
821.447	25134.7
821.588	24462.4
821.728	24036.6
821.868	23532.2
822.008	22907.5
822.149	22760.3
822.289	22698.9
822.429	21906.7
822.569	21673.8
822.709	21575.4
822.849	20885.7
822.99	20722.8
823.13	20626
823.27	20631.4
823.41	20246.6
823.55	20270
823.69	20062.7
823.83	20165.2
823.97	19903.3
824.11	19522.4
824.25	19333.4
824.389	19406.8
824.529	19478.1
824.669	19154.1
824.809	19454.3
824.949	19524.4
825.089	19432.7
825.228	19237.6
825.368	18605.3
825.508	18471.6
825.648	18419.5
825.787	18423.8
825.927	18474.9
826.067	18256.8
826.206	18120.4
826.346	18265.9
826.485	18134.5
826.625	18167.5
826.765	18847.7
826.904	18531.7
827.044	17808.5
827.183	17733.7
827.323	17507.9
827.462	17888.8
827.601	17709.4
827.741	17648.2
827.88	17915.1
828.02	17552
828.159	17764.3
828.298	17846.9
828.437	18046.2
828.577	17754.1
828.716	18258.6
828.855	17905.5
828.994	17502.8
829.134	17550.7
829.273	17596.7
829.412	17481.2
829.551	17321.4
829.69	17419.6
829.829	17759
829.968	18166.9
830.107	17790.2
830.246	17854.6
830.385	17638
830.524	17520.9
830.663	17211.4
830.802	17025.5
830.941	16752.2
831.08	16747.4
831.219	17003.3
831.357	16893.8
831.496	17632
831.635	16678.1
831.774	16469.5
831.913	16466.7
832.051	16091.5
832.19	16028.3
832.329	16283.4
832.467	15964.3
832.606	15775.5
832.744	15929.7
832.883	15946.2
833.022	15856
833.16	16023.2
833.299	16063.3
833.437	16106.6
833.576	16191.5
833.714	16174.8
833.852	16303.9
833.991	16290.1
834.129	16344.6
834.267	16351
834.406	16236.5
834.544	16318
834.682	16411.4
834.821	16411.4
834.959	17390
835.097	16480.7
835.235	16973.4
835.373	16688.9
835.511	16678.4
835.65	16432
835.788	16750.1
835.926	16196.8
836.064	16077.8
836.202	16148.8
836.34	16960.7
836.478	17057.9
836.615	16860.7
836.753	17134.7
836.891	17387
837.029	17250.1
837.167	17278.2
837.305	17239.1
837.443	17125.9
837.58	17117
837.718	17538.5
837.856	17414.5
837.993	17317.7
838.131	17571.9
838.269	17570
838.406	17593.2
838.544	17576.3
838.681	17059.7
838.819	16942.9
838.956	16507.6
839.094	16523.7
839.231	16665.8
839.369	16997.3
839.506	17875.5
839.643	17322.9
839.781	16647.5
839.918	16533.1
840.055	16755.6
840.193	16783.2
840.33	16643.1
840.467	16772
840.604	16965.4
840.742	18108.9
840.879	16645.9
841.016	16711.1
841.153	16698.9
841.29	17333.6
841.427	17030.8
841.564	17101.3
841.701	17001.4
841.838	16737.1
841.975	16621.8
842.112	16686.2
842.249	16335.2
842.385	16300.4
842.522	17450.5
842.659	16439.6
842.796	16331.9
842.933	16379.8
843.069	16462.1
843.206	16323.1
843.343	16630.2
843.479	16548.3
843.616	16705
843.752	16012.7
843.889	16079.5
844.025	17001.2
844.162	16128.5
844.298	16580.4
844.435	16238.7
844.571	16159.6
844.708	16619.6
844.844	16786.1
844.98	16904.5
845.117	16886.1
845.253	16391.3
845.389	16290
845.525	16456.4
845.661	16438.4
845.798	16260
845.934	16406.1
846.07	16216.2
846.206	16607
846.342	16816.6
846.478	16485.6
846.614	16044.3
846.75	15883.3
846.886	15701.4
847.022	16277.8
847.158	15906.6
847.294	15920.6
847.429	15927
847.565	15726.8
847.701	17396
847.837	15264.4
847.972	15140.2
848.108	15772.2
848.244	15646.6
848.379	14967.6
848.515	14719.5
848.65	14696.1
848.786	14840.5
848.921	14878.9
849.057	15161.8
849.192	15211
849.328	15011.5
849.463	15003.9
849.598	14813.9
849.734	14780.3
849.869	14575.3
850.004	14332.7
850.14	14481.3
850.275	14374.5
850.41	14239.3
850.545	14237.9
850.68	14257.5
850.815	14351.2
850.95	14303.2
851.085	15009.6
851.22	14628.2
851.355	14457.7
851.49	14305.6
851.625	14202.1
851.76	14198.9
851.895	13963.5
852.03	13975.5
852.165	14249.5
852.299	14402.5
852.434	14766.6
852.569	14386.5
852.703	14543.7
852.838	14616.8
852.973	14918.8
853.107	14823.3
853.242	14436.4
853.376	14272.9
853.511	13810.4
853.645	14135.5
853.78	14725.1
853.914	14226.2
854.048	14168.9
854.183	14023.2
854.317	14303.2
854.451	14788.3
854.585	14140.2
854.72	14009.1
854.854	14556.2
854.988	13830.3
855.122	14192.8
855.256	13680.9
855.39	14044.2
855.524	14238.9
855.658	14110.2
855.792	14183
855.926	14216.1
856.06	14229.4
856.194	14333.2
856.327	13950.1
856.461	13857.8
856.595	13894.3
856.729	13897.4
856.862	14284.5
856.996	13915.5
857.13	14200.2
857.263	14312.7
857.397	14257.5
857.53	13901.1
857.664	14058.3
857.797	14151.6
857.931	14143.4
858.064	13986.3
858.197	14271.7
858.331	13910.5
858.464	13621.8
858.597	13474.6
858.731	13859.7
858.864	13728.1
858.997	13743.8
859.13	13884.6
859.263	13868.4
859.396	14132.8
859.529	13701.5
859.662	13733.7
859.795	13498.5
859.928	13825.1
860.061	14222
860.194	14254.6
860.327	13860
860.46	13674.5
860.592	13957.4
860.725	13967.4
860.858	13922.8
860.99	13461.4
861.123	13379.7
861.256	13356.5
861.388	13592.5
861.521	19524.3
861.653	13273.7
861.786	13118.8
861.918	13182
862.05	13282.8
862.183	13470.8
862.315	13589.5
862.447	13704.8
862.58	13469
862.712	13040.5
862.844	12855.8
862.976	13257.6
863.108	13106.9
863.24	16366.5
863.372	12830.4
863.504	13055.2
863.636	12934.8
863.768	13279
863.9	13133.3
864.032	12935.1
864.164	12934.6
864.296	13151.5
864.428	13300.3
864.559	13320.8
864.691	13344.3
864.823	13311.8
864.954	13300.1
865.086	13424.8
865.217	13250.2
865.349	13139.9
865.48	13333.8
865.612	13417.4
865.743	13927.7
865.875	13318.2
866.006	13189.5
866.137	13404.4
866.269	13241.3
866.4	13177.8
866.531	13186.3
866.662	13171.6
866.793	13232
866.924	13303.7
867.055	13475.4
867.186	13362.4
867.317	13270.7
867.448	13138
867.579	13482.3
867.71	13363.5
867.841	13336.7
867.972	13583.8
868.103	13518.2
868.233	13626.6
868.364	13627.8
868.495	13732.1
868.625	14252.6
868.756	14657.3
868.886	14063
869.017	14336
869.147	14811.2
869.278	14605.9
869.408	14326.9
869.539	14209
869.669	14653
869.799	14359.9
869.929	14570.2
870.06	14651
870.19	15396.5
870.32	15088.3
870.45	15235.5
870.58	15456.2
870.71	15601.1
870.84	15521.8
870.97	15204.2
871.1	15029.5
871.23	15807.3
871.36	15782.1
871.489	15441.5
871.619	15622.4
871.749	15675.5
871.879	15728.2
872.008	15953.7
872.138	15477.8
872.267	15377.3
872.397	15114.9
872.526	14986.9
872.656	14742.8
872.785	14973.7
872.915	15387.9
873.044	15607.2
873.173	15292.4
873.303	15422.1
873.432	15472.4
873.561	15598.9
873.69	15229.3
873.819	15058.7
873.948	15215.6
874.077	15152.5
874.206	14959.6
874.335	15028.2
874.464	15465.9
874.593	15923.9
874.722	15580.1
874.851	15891.1
874.979	15768.1
875.108	15732.2
875.237	15401.6
875.365	15099.7
875.494	15230.2
875.623	15624.1
875.751	15092.6
875.88	15341
876.008	15548.8
876.136	15598.7
876.265	16011.8
876.393	16426.6
876.521	16228.7
876.65	16111.9
876.778	15989.3
876.906	15658.7
877.034	15556.6
877.162	15598.4
877.29	15500.2
877.418	15732
877.546	15765.3
877.674	15961.4
877.802	15832.3
877.93	15706.4
878.058	15572.2
878.185	15435.2
878.313	15749.4
878.441	15753.6
878.568	15436.3
878.696	15595.7
878.824	15771.1
878.951	15848.3
879.079	16097.8
879.206	16372.4
879.333	15842.5
879.461	15520
879.588	15590.4
879.715	15779.6
879.842	16345.6
879.97	15393.7
880.097	14595.5
880.224	14441.4
880.351	14537.1
880.478	14536.8
880.605	14504.8
880.732	14439.2
880.859	15389.4
880.986	14550.5
881.112	14736.9
881.239	14502.1
881.366	14079.2
881.493	13900.3
881.619	13738.5
881.746	13869.8
881.872	13943.4
881.999	13890.2
882.125	13989
882.252	14301
882.378	14358
882.505	14671.9
882.631	14186.5
882.757	13904.1
882.883	14175.6
883.01	14065.5
883.136	13909.9
883.262	13697.7
883.388	13658
883.514	14051.6
883.64	14187.3
883.766	14286.7
883.892	13847
884.018	13946.7
884.143	14341.8
884.269	14803.9
884.395	13822.8
884.52	13530.4
884.646	13693.3
884.772	13573.6
884.897	13441.3
885.023	13726.4
885.148	14125.2
885.274	14398.3
885.399	14230.1
885.524	13857.7
885.65	13981.3
885.775	14015.5
885.9	13980.6
886.025	14235.5
886.15	14044.8
886.275	13759
886.4	13552.7
886.525	13866.9
886.65	13680.4
886.775	13711.6
886.9	14332.6
887.025	14552.1
887.149	13890.1
887.274	13506.6
887.399	13431.9
887.523	13406.5
887.648	13280.1
887.773	13321.4
887.897	13875.2
888.021	13955.8
888.146	13574.6
888.27	14315
888.395	14396.9
888.519	13896.8
888.643	13827.3
888.767	13942.2
888.891	13536.2
889.015	13293.9
889.139	13479.8
889.263	13303.1
889.387	13736.3
889.511	13989.7
889.635	13872.1
889.759	13363
889.883	13367.1
890.006	13489.5
890.13	13896
890.254	13371
890.377	13520.2
890.501	13045
890.624	12994
890.748	13323.9
890.871	12881.6
890.995	12723.2
891.118	12595.2
891.241	12976.4
891.364	13003.2
891.488	13336.5
891.611	12962.5
891.734	13019.5
891.857	13113.9
891.98	13020.1
892.103	13384.9
892.226	13168.4
892.349	13347.5
892.471	12670.2
892.594	13048.7
892.717	13153.5
892.839	13023.8
892.962	13215.4
893.085	13469.8
893.207	13185.5
893.33	12748.8
893.452	12806.8
893.575	13264.7
893.697	12954.5
893.819	13509.3
893.941	13713.9
894.064	13701.3
894.186	13129.2
894.308	13030.5
894.43	13599.7
894.552	14012.6
894.674	13901
894.796	13176.4
894.918	13357.4
895.04	13192.6
895.161	13421.9
895.283	13367.5
895.405	13029
895.526	13194.9
895.648	13267.6
895.769	13333.4
895.891	13446.8
896.012	13619.2
896.134	13385.9
896.255	13191.3
896.376	13049
896.498	13169
896.619	13188
896.74	13045.1
896.861	13279.1
896.982	14030.8
897.103	14395
897.224	13740.8
897.345	13398.6
897.466	13231.2
897.587	13420.6
897.708	13715.5
897.828	13441.5
897.949	13249.8
898.07	12965.8
898.19	13064.9
898.311	13571.9
898.431	13073.1
898.552	13292.4
898.672	13621.6
898.792	13530.2
898.913	13374.5
899.033	13008.2
899.153	12681.7
899.273	12476.9
899.393	12682.6
899.513	12865.5
899.633	12754.2
899.753	12901.8
899.873	12717.1
899.993	13031
900.113	12839.9
900.232	12983.1
900.352	12860.9
900.472	12670.6
900.591	12366.6
900.711	12524.5
900.83	12392.3
900.95	12958.7
901.069	13128
901.189	12686.7
901.308	12294.2
901.427	12220.3
901.546	12376.1
901.665	12656.1
901.784	12712.5
901.904	12343.6
902.023	12215
902.141	11816.4
902.26	11861.7
902.379	12290.4
902.498	12008.5
902.617	12025
902.735	12418.2
902.854	12420.5
902.973	12570.1
903.091	11940.2
903.21	11938.6
903.328	12123.9
903.446	12103.4
903.565	11992.7
903.683	12225.2
903.801	12067.9
903.919	12410
904.038	12481.6
904.156	12100.3
904.274	12445.8
904.392	12377.9
904.51	12462.3
904.627	12652.5
904.745	12753.6
904.863	12950.7
904.981	12309.5
905.098	12142.3
905.216	12387.7
905.334	12471.8
905.451	12558.7
905.569	12552.2
905.686	12873
905.803	12815.6
905.921	12383.3
906.038	12776
906.155	12668.4
906.272	12264.9
906.389	12433.3
906.506	12271.9
906.623	12257.9
906.74	12252.9
906.857	12090.9
906.974	12278.7
907.091	12898.9
907.208	13144.4
907.324	12808.8
907.441	12573.7
907.557	12194.7
907.674	12317.5
907.79	12073.4
907.907	12168.1
908.023	12523.7
908.139	12469.8
908.256	12438.9
908.372	12509.3
908.488	12484.6
908.604	12270.4
908.72	12101.8
908.836	12403.2
908.952	12378.8
909.068	12349.9
909.184	12816
909.3	12508.5
909.415	12731.1
909.531	13006.7
909.647	12184
909.762	12282.7
909.878	12225.8
909.993	12513.2
910.108	12400.1
910.224	12288.5
910.339	12688.9
910.454	12366.9
910.57	12216
910.685	12068.5
910.8	13262.1
910.915	12806.1
911.03	12614.6
911.145	12118.6
911.259	12101.8
911.374	12245.9
911.489	11953.8
911.604	11946.4
911.718	11605
911.833	11822.4
911.947	11447.1
912.062	11211.3
912.176	11668.5
912.291	11789.9
912.405	11773.9
912.519	12424.5
912.633	12651.2
912.748	12188.6
912.862	12102.7
912.976	11747.6
913.09	11420.4
913.204	11809
913.318	11891.8
913.431	12142.7
913.545	12324
913.659	12523.5
913.772	12302.3
913.886	12006.7
914	11768.5
914.113	12164.9
914.226	12335.7
914.34	12293.6
914.453	11812.7
914.566	12415
914.68	11972.3
914.793	12043.9
914.906	11598.1
915.019	11580.3
915.132	11404.5
915.245	11706.6
915.358	11769.5
915.47	11823.7
915.583	11884.7
915.696	11941.8
915.809	12340.8
915.921	12511.6
916.034	11989.2
916.146	12003.5
916.259	11845
916.371	12208.4
916.483	12229
916.595	12035.6
916.708	12123.9
916.82	12134.2
916.932	11916.4
917.044	12104
917.156	12231.5
917.268	11871.3
917.38	11919.7
917.491	11931.7
917.603	12113.6
917.715	12218.8
917.826	12482.8
917.938	12082.7
918.049	11766.8
918.161	12242
918.272	12576.1
918.384	12625.7
918.495	12309.6
918.606	11855.8
918.717	11745.4
918.828	12136
918.939	12205.5
919.05	11872.9
919.161	12257.7
919.272	11459.1
919.383	11667.2
919.494	12349.5
919.604	13210.5
919.715	12525
919.826	12351.8
919.936	12668.8
920.047	13172.6
920.157	12712.9
920.267	13858.5
920.378	13175.9
920.488	13027.5
920.598	14079
920.708	14516.7
920.818	14156.7
920.928	14259.9
921.038	15094.3
921.148	14800.4
921.258	13780.3
921.368	13713.5
921.477	13194.2
921.587	13067.5
921.697	12510.1
921.806	12887.2
921.916	12470.8
922.025	11867.1
922.134	11749.2
922.244	11660.5
922.353	11953.5
922.462	11541.9
922.571	11531.5
922.68	11114.2
922.789	11065.5
922.898	11363.5
923.007	10977.2
923.116	11358.1
923.224	11285.9
923.333	11345.5
923.442	11086.3
923.55	10977.5
923.659	11110
923.767	11368.3
923.876	11023.1
923.984	11335.9
924.092	10973.4
924.201	11302
924.309	11330.6
924.417	11438.8
924.525	11132.7
924.633	11290.3
924.741	15846.4
924.849	10864.2
924.956	11441.7
925.064	10871.3
925.172	10792.5
925.279	10864.8
925.387	11220.2
925.494	11122.1
925.602	11611.4
925.709	11622.1
925.816	11128.4
925.924	11313
926.031	11639.8
926.138	11512.3
926.245	11803.5
926.352	11294.1
926.459	11786
926.566	11845.5
926.673	11481.7
926.779	11291.8
926.886	11296.7
926.993	10993
927.099	10875.1
927.206	10855.3
927.312	10803.4
927.419	11235.1
927.525	11113
927.631	11277.4
927.737	10978.2
927.843	10844.5
927.95	10574.4
928.056	10828.8
928.162	10925
928.267	11112.5
928.373	14394.2
928.479	11380.9
928.585	10699.9
928.69	11212
928.796	11183.1
928.901	10949.8
929.007	10582.7
929.112	11029.7
929.218	10945.9
929.323	10979.5
929.428	10766.7
929.533	11502.7
929.638	10740.2
929.743	11078.1
929.848	11133.7
929.953	11033.9
930.058	10771.5
930.163	10371.4
930.267	10561.7
930.372	11047.7
930.477	10450.6
930.581	11232.5
930.685	10958.1
930.79	10547.7
930.894	10829.1
930.998	10704.1
931.103	11634.2
931.207	10268.4
931.311	10151.8
931.415	10078.7
931.519	9674.9
931.623	10013.8
