Data from laser3s10a1_V78500241_7.txt Node
Date: Fri Aug 28 13:31:29 CST 2020
User: usil
Spectrometer: V785-0024
Trigger mode: 0
Integration Time (sec): 3.000000E0
Scans to average: 10
Nonlinearity correction enabled: false
Boxcar width: 0
Storing dark spectrum: false
XAxis mode: Wavelengths
Number of Pixels in Spectrum: 1024
>>>>>Begin Spectral Data<<<<<
801.071	33407.3
801.214	33444.9
801.356	33328.2
801.499	33450.7
801.641	33587.3
801.783	33937.7
801.926	34324.8
802.068	34213.8
802.211	34261.8
802.353	34197.7
802.496	33879.8
802.638	34141.1
802.78	34321.9
802.923	34580.6
803.065	34394.4
803.208	34458.6
803.35	34628.7
803.492	34554.8
803.635	34539.7
803.777	33932
803.919	34375.3
804.061	35810.8
804.204	34781.1
804.346	34810.7
804.488	34763.8
804.63	35304.9
804.773	34986.2
804.915	35055.4
805.057	35546.3
805.199	35149.5
805.341	35224.5
805.483	35258.5
805.626	35304.4
805.768	35281.6
805.91	35887.2
806.052	36177.5
806.194	35981.9
806.336	36839.9
806.478	36607.6
806.62	37028.9
806.762	37718.5
806.904	38022
807.046	38134.7
807.188	37240.6
807.33	36658.8
807.472	36414.2
807.614	35287.9
807.756	35290.2
807.898	35032.3
808.04	35662
808.182	36636.6
808.324	37372.5
808.465	37389
808.607	36988.7
808.749	36083.4
808.891	35473.7
809.033	35603.4
809.174	35595.8
809.316	35743.1
809.458	35961.3
809.6	35495
809.741	35294
809.883	35095
810.025	35548.7
810.166	35017.5
810.308	34292.4
810.45	33281.5
810.591	32386.9
810.733	32024.6
810.875	32396.5
811.016	32618.4
811.158	32529.2
811.299	32379.7
811.441	32270.6
811.582	32124.6
811.724	32091.2
811.865	32366
812.007	33052.4
812.148	33550.7
812.29	34164.8
812.431	34748.1
812.573	35426.8
812.714	36240.3
812.855	36780.5
812.997	36712.9
813.138	37059.7
813.279	36461.3
813.421	35761.3
813.562	34801.8
813.703	33634.1
813.845	32951.8
813.986	32027.7
814.127	31577.4
814.268	31238.4
814.41	31058.3
814.551	30565.3
814.692	30682.9
814.833	29912
814.974	29664.9
815.115	29381.9
815.256	28576.5
815.397	27957.8
815.539	27591.5
815.68	26990.3
815.821	26937.9
815.962	27300
816.103	26767.7
816.244	26205
816.385	25998.3
816.526	26332
816.666	25992.4
816.807	25870.1
816.948	26460.2
817.089	26779.7
817.23	26483.7
817.371	26183.2
817.512	26268.3
817.653	26334.5
817.793	26100.4
817.934	25953.6
818.075	26236.7
818.216	26086
818.356	26175
818.497	26073.5
818.638	26001.3
818.778	26429.8
818.919	26691.4
819.06	27002.5
819.2	27589.2
819.341	27661.8
819.481	27607.5
819.622	27769.1
819.762	28180.3
819.903	27840.7
820.043	27446.1
820.184	27187.3
820.324	26855.3
820.465	26743
820.605	26290.6
820.746	26106.9
820.886	25672
821.026	26217.6
821.167	25659.5
821.307	25601.9
821.447	25119.3
821.588	24426.5
821.728	24014.1
821.868	23533.4
822.008	22882.6
822.149	22705.8
822.289	22647.4
822.429	21872.6
822.569	21620.8
822.709	21569
822.849	20846.2
822.99	20705.7
823.13	20575.8
823.27	20642.6
823.41	20240.7
823.55	20247.3
823.69	20058
823.83	20156.4
823.97	19898.4
824.11	19547.5
824.25	19301.5
824.389	19425.9
824.529	19491.5
824.669	19099.8
824.809	19435.3
824.949	19541.2
825.089	19398
825.228	19260.3
825.368	18537.3
825.508	18430.6
825.648	18424
825.787	18413
825.927	18460.9
826.067	18244.4
826.206	18123
826.346	18269.8
826.485	18107.8
826.625	18179.4
826.765	18804.6
826.904	18523.7
827.044	17857.1
827.183	17738.4
827.323	17539.7
827.462	17874.5
827.601	17683
827.741	17614.5
827.88	17905.2
828.02	17546.4
828.159	17757.9
828.298	17838.8
828.437	18024.8
828.577	17740.8
828.716	18236.2
828.855	17881.5
828.994	17515.5
829.134	17530.4
829.273	17611.8
829.412	17414.4
829.551	17345.8
829.69	17424.5
829.829	17760.4
829.968	18120.4
830.107	17793.6
830.246	17842.8
830.385	17639.1
830.524	17507.8
830.663	17201.3
830.802	16974.1
830.941	16759.4
831.08	16767.6
831.219	16974.4
831.357	16871.1
831.496	17593.1
831.635	16661.5
831.774	16463.4
831.913	16458.9
832.051	16057.5
832.19	16013.5
832.329	16240.9
832.467	15960.9
832.606	15739.1
832.744	15923.7
832.883	15936.7
833.022	15880.6
833.16	15991.1
833.299	16063
833.437	16104.8
833.576	16179.3
833.714	16125.2
833.852	16292
833.991	16263.8
834.129	16363.4
834.267	16335.6
834.406	16253.5
834.544	16274.9
834.682	16400.7
834.821	16429.7
834.959	17379.3
835.097	16456.4
835.235	16934.4
835.373	16689.1
835.511	16636.6
835.65	16404.9
835.788	16794.9
835.926	16235.8
836.064	16079.3
836.202	16142.3
836.34	16927.3
836.478	17048
836.615	16854.3
836.753	17119.8
836.891	17377.2
837.029	17221.5
837.167	17257.6
837.305	17211.2
837.443	17126.6
837.58	17097.2
837.718	17582.2
837.856	17457
837.993	17311
838.131	17565
838.269	17516.6
838.406	17599.3
838.544	17556.5
838.681	17017.2
838.819	16932.2
838.956	16518.3
839.094	16519.4
839.231	16646.9
839.369	16976.4
839.506	17895.6
839.643	17368.7
839.781	16700.1
839.918	16510.7
840.055	16772.9
840.193	16731
840.33	16620.3
840.467	16746.4
840.604	16936.7
840.742	18128.8
840.879	16643.8
841.016	16709.7
841.153	16699.8
841.29	17338.2
841.427	17020.9
841.564	17087.2
841.701	16982.2
841.838	16745.7
841.975	16608.8
842.112	16674.6
842.249	16326.5
842.385	16304.8
842.522	17443.9
842.659	16414.4
842.796	16253.1
842.933	16380.9
843.069	16449.5
843.206	16302.6
843.343	16626.2
843.479	16526.4
843.616	16658.6
843.752	15993.4
843.889	16077
844.025	16984.6
844.162	16107.4
844.298	16589.8
844.435	16221.6
844.571	16152.8
844.708	16599.1
844.844	16779.3
844.98	16882.8
845.117	16893.9
845.253	16395.7
845.389	16289.3
845.525	16479.6
845.661	16405
845.798	16229.7
845.934	16405.7
846.07	16200.3
846.206	16530.2
846.342	16803.3
846.478	16514.9
846.614	16047.6
846.75	15860.2
846.886	15694.6
847.022	16253.5
847.158	15945.7
847.294	15864.8
847.429	15925.6
847.565	15718.9
847.701	17410.9
847.837	15297.4
847.972	15121.1
848.108	15747.2
848.244	15624.2
848.379	14987.7
848.515	14690.6
848.65	14665.8
848.786	14839.9
848.921	14859.1
849.057	15161.1
849.192	15193.9
849.328	14982.3
849.463	14995.3
849.598	14786
849.734	14772.3
849.869	14572.2
850.004	14338.3
850.14	14473.8
850.275	14336.7
850.41	14178
850.545	14235.2
850.68	14279.1
850.815	14350.1
850.95	14278.8
851.085	14960.1
851.22	14635.9
851.355	14466.4
851.49	14250.5
851.625	14185.5
851.76	14190.7
851.895	13967.9
852.03	13941.1
852.165	14196.8
852.299	14404.3
852.434	14722.9
852.569	14360.9
852.703	14508.4
852.838	14615.6
852.973	14915.2
853.107	14852.5
853.242	14424.6
853.376	14264
853.511	13801.3
853.645	14096.1
853.78	14705.6
853.914	14223.7
854.048	14159.8
854.183	14011.1
854.317	14336.4
854.451	14801.7
854.585	14126.3
854.72	14002
854.854	14539.9
854.988	13833.1
855.122	14227.4
855.256	13642
855.39	14036.6
855.524	14240
855.658	14108.2
855.792	14208.6
855.926	14191
856.06	14198.6
856.194	14334.5
856.327	13920.3
856.461	13834.9
856.595	13903.7
856.729	13890.9
856.862	14289.4
856.996	13920.1
857.13	14201.2
857.263	14265.6
857.397	14281.1
857.53	13903.8
857.664	14077.3
857.797	14157.9
857.931	14118.2
858.064	13968
858.197	14273.9
858.331	13906.3
858.464	13631.4
858.597	13479.6
858.731	13841.4
858.864	13723.2
858.997	13732.1
859.13	13888.6
859.263	13868.5
859.396	14129
859.529	13667.8
859.662	13733.3
859.795	13492.1
859.928	13809.1
860.061	14215
860.194	14271.3
860.327	13846.3
860.46	13669.7
860.592	13959.2
860.725	13953.8
860.858	13916.4
860.99	13423.9
861.123	13362.7
861.256	13341.4
861.388	13574.3
861.521	19922.8
861.653	13267.9
861.786	13126.4
861.918	13165.2
862.05	13258
862.183	13508.8
862.315	13544.2
862.447	13706.6
862.58	13465.1
862.712	13044.2
862.844	12850.3
862.976	13217.3
863.108	13124.2
863.24	16373
863.372	12797.6
863.504	13060.7
863.636	12979.5
863.768	13262.2
863.9	13087.7
864.032	12878.7
864.164	12941.9
864.296	13152.9
864.428	13313
864.559	13327
864.691	13358
864.823	13306.8
864.954	13269.1
865.086	13394.4
865.217	13209.4
865.349	13145.4
865.48	13303.8
865.612	13419.1
865.743	13922.4
865.875	13311.4
866.006	13169.8
866.137	13380.5
866.269	13233
866.4	13174.7
866.531	13193.8
866.662	13147.5
866.793	13215.8
866.924	13253.4
867.055	13464.6
867.186	13365.5
867.317	13254
867.448	13165.3
867.579	13416.8
867.71	13359.8
867.841	13336.1
867.972	13620.8
868.103	13518.6
868.233	13600.9
868.364	13639.3
868.495	13747.6
868.625	14207.8
868.756	14675.2
868.886	14045.3
869.017	14320.2
869.147	14812.7
869.278	14577
869.408	14319.3
869.539	14250.1
869.669	14651
869.799	14366.7
869.929	14560.3
870.06	14607.9
870.19	15367.3
870.32	15125.4
870.45	15244.1
870.58	15466.4
870.71	15565
870.84	15483.6
870.97	15161.6
871.1	15024.3
871.23	15813.7
871.36	15762.7
871.489	15453.9
871.619	15610.9
871.749	15664.2
871.879	15714.7
872.008	15939.5
872.138	15477
872.267	15328.9
872.397	15102.5
872.526	14924.4
872.656	14744.4
872.785	14924.5
872.915	15402.8
873.044	15615.3
873.173	15296.2
873.303	15441.2
873.432	15481.2
873.561	15585.9
873.69	15247.9
873.819	15027.3
873.948	15214.7
874.077	15136.1
874.206	14976.4
874.335	15001
874.464	15453.9
874.593	15903.2
874.722	15568.5
874.851	15900.4
874.979	15752.1
875.108	15749.8
875.237	15378.7
875.365	15112.4
875.494	15255.1
875.623	15596.9
875.751	15080.4
875.88	15361.2
876.008	15534.5
876.136	15539.7
876.265	16001.5
876.393	16393.3
876.521	16247.9
876.65	16086.1
876.778	15974
876.906	15652.8
877.034	15527.1
877.162	15628.8
877.29	15473.5
877.418	15736.5
877.546	15734.1
877.674	15965.5
877.802	15824.4
877.93	15696.9
878.058	15535.9
878.185	15469.7
878.313	15730.9
878.441	15772.6
878.568	15403.6
878.696	15544.1
878.824	15776.3
878.951	15830.3
879.079	16060.1
879.206	16346.8
879.333	15811.1
879.461	15534.3
879.588	15592.5
879.715	15760.4
879.842	16343.3
879.97	15406.2
880.097	14533.2
880.224	14470.7
880.351	14559.8
880.478	14517.7
880.605	14517.4
880.732	14436
880.859	15401.8
880.986	14578.4
881.112	14751.4
881.239	14461.5
881.366	14105.5
881.493	13906.1
881.619	13738.9
881.746	13851.7
881.872	13946.3
881.999	13870.2
882.125	13989
882.252	14316.3
882.378	14356.9
882.505	14690.3
882.631	14223.2
882.757	13896.5
882.883	14189.6
883.01	14021.1
883.136	13867.2
883.262	13685.7
883.388	13650
883.514	14100.3
883.64	14177.2
883.766	14291.5
883.892	13855
884.018	13935.6
884.143	14317.4
884.269	14797
884.395	13820.1
884.52	13512.7
884.646	13692.1
884.772	13585.3
884.897	13408.3
885.023	13699
885.148	14115.4
885.274	14392.3
885.399	14214.8
885.524	13886.3
885.65	13993.6
885.775	14020.2
885.9	13983.4
886.025	14253.8
886.15	14040.8
886.275	13719.6
886.4	13549.6
886.525	13855.4
886.65	13672
886.775	13724.5
886.9	14316.2
887.025	14535.2
887.149	13924.2
887.274	13475.4
887.399	13401.1
887.523	13421.3
887.648	13288.8
887.773	13295.1
887.897	13869
888.021	13917.2
888.146	13572.5
888.27	14331
888.395	14426.8
888.519	13881.7
888.643	13843.3
888.767	13934.2
888.891	13516.9
889.015	13290.4
889.139	13455.9
889.263	13287
889.387	13723.8
889.511	13999.6
889.635	13878.6
889.759	13346.3
889.883	13342.2
890.006	13472.7
890.13	13908.7
890.254	13352.8
890.377	13519.8
890.501	13060.3
890.624	13001.6
890.748	13364.3
890.871	12867.4
890.995	12717.1
891.118	12564.7
891.241	12965.6
891.364	13033.2
891.488	13327.7
891.611	12949.8
891.734	13030.6
891.857	13113.2
891.98	13000.7
892.103	13383.8
892.226	13198.4
892.349	13312.4
892.471	12670.2
892.594	13025.2
892.717	13152.5
892.839	13025.7
892.962	13247.4
893.085	13472.6
893.207	13190
893.33	12746.3
893.452	12801.8
893.575	13279
893.697	12973.5
893.819	13534.1
893.941	13706.7
894.064	13735.8
894.186	13121.1
894.308	13029.8
894.43	13638.5
894.552	14000.9
894.674	13884.3
894.796	13200.4
894.918	13320.9
895.04	13179.6
895.161	13392
895.283	13354.3
895.405	13013.5
895.526	13196
895.648	13269.7
895.769	13366.6
895.891	13450.3
896.012	13633.2
896.134	13391.7
896.255	13193.8
896.376	12985.7
896.498	13132.6
896.619	13206.9
896.74	13034
896.861	13268.8
896.982	14031.3
897.103	14387.2
897.224	13751.1
897.345	13395.8
897.466	13246.8
897.587	13417.8
897.708	13690.8
897.828	13426.2
897.949	13287.8
898.07	12910.7
898.19	13064.4
898.311	13609.5
898.431	13082.1
898.552	13259.3
898.672	13590.9
898.792	13544.2
898.913	13372.5
899.033	13019.4
899.153	12685.4
899.273	12428.7
899.393	12663.1
899.513	12862.2
899.633	12738.3
899.753	12856
899.873	12684.4
899.993	13019.8
900.113	12850.8
900.232	12980.6
900.352	12895.4
900.472	12642.2
900.591	12343.1
900.711	12516.5
900.83	12399.1
900.95	12913.5
901.069	13141.6
901.189	12712.4
901.308	12262.8
901.427	12230
901.546	12375.1
901.665	12660.4
901.784	12690.7
901.904	12300.1
902.023	12181
902.141	11824.7
902.26	11834.7
902.379	12261.3
902.498	12040.3
902.617	12019.5
902.735	12450.2
902.854	12432.1
902.973	12550.8
903.091	11930.7
903.21	11930.9
903.328	12106
903.446	12090.4
903.565	11965.3
903.683	12182.6
903.801	12080.2
903.919	12383.7
904.038	12480
904.156	12098.4
904.274	12438.8
904.392	12373.9
904.51	12475.1
904.627	12631
904.745	12733.4
904.863	12935.1
904.981	12340
905.098	12145.6
905.216	12394.8
905.334	12470.1
905.451	12546.7
905.569	12500.6
905.686	12855.5
905.803	12791.9
905.921	12410.8
906.038	12764.8
906.155	12637.6
906.272	12245.9
906.389	12439.1
906.506	12270.9
906.623	12235.5
906.74	12239.5
906.857	12059.4
906.974	12274.6
907.091	12902.3
907.208	13173.7
907.324	12796.8
907.441	12549.7
907.557	12191.2
907.674	12297.8
907.79	12049
907.907	12181.6
908.023	12480.8
908.139	12464.8
908.256	12455.4
908.372	12518.7
908.488	12449.3
908.604	12276.4
908.72	12056.3
908.836	12407.8
908.952	12348.1
909.068	12345.7
909.184	12818.6
909.3	12532.6
909.415	12751.3
909.531	12995.2
909.647	12154.6
909.762	12273.1
909.878	12227.8
909.993	12529.9
910.108	12416.1
910.224	12278.8
910.339	12696.1
910.454	12385.5
910.57	12201.6
910.685	12037.6
910.8	13257.2
910.915	12811.8
911.03	12617.1
911.145	12152.8
911.259	12069.2
911.374	12234.7
911.489	11959.4
911.604	11973.7
911.718	11578.3
911.833	11829.4
911.947	11433.3
912.062	11228
912.176	11645.2
912.291	11813.9
912.405	11809.3
912.519	12433.1
912.633	12644
912.748	12215.3
912.862	12095.6
912.976	11730.8
913.09	11443
913.204	11798
913.318	11862.6
913.431	12147.6
913.545	12292
913.659	12486.6
913.772	12293.1
913.886	11971.4
914	11795.9
914.113	12180.4
914.226	12336.6
914.34	12283.2
914.453	11800.8
914.566	12415.8
914.68	11942.8
914.793	12073.2
914.906	11569.1
915.019	11574.9
915.132	11373.5
915.245	11701.4
915.358	11794.1
915.47	11865.9
915.583	11868.6
915.696	11943.9
915.809	12344.9
915.921	12523
916.034	11979.4
916.146	11979.9
916.259	11824.8
916.371	12190.7
916.483	12217.9
916.595	12037.4
916.708	12113.7
916.82	12157.4
916.932	11913.4
917.044	12097.3
917.156	12258.5
917.268	11890.1
917.38	11948.2
917.491	11919.2
917.603	12111.7
917.715	12193.6
917.826	12466.3
917.938	12068
918.049	11816.1
918.161	12257.4
918.272	12547.9
918.384	12628.7
918.495	12315.3
918.606	11861.1
918.717	11742.5
918.828	12120.3
918.939	12170.1
919.05	11898.1
919.161	12248.6
919.272	11464.5
919.383	11632.4
919.494	12378.5
919.604	13213.3
919.715	12512.4
919.826	12351
919.936	12656.5
920.047	13179
920.157	12720.1
920.267	13836
920.378	13161.9
920.488	13045.8
920.598	14099.2
920.708	14513.5
920.818	14185.2
920.928	14227.2
921.038	15109.4
921.148	14821.9
921.258	13750.4
921.368	13691.1
921.477	13148.3
921.587	13037.4
921.697	12512.1
921.806	12887.4
921.916	12492.9
922.025	11848.5
922.134	11767.5
922.244	11671.9
922.353	11984.9
922.462	11546.7
922.571	11568.3
922.68	11142.3
922.789	11060.7
922.898	11337.8
923.007	10979
923.116	11347.6
923.224	11248
923.333	11322
923.442	11088.6
923.55	10999.5
923.659	11094.6
923.767	11359.3
923.876	11042.6
923.984	11342.1
924.092	10932.2
924.201	11295.6
924.309	11321.1
924.417	11394.3
924.525	11144.2
924.633	11288
924.741	16111.2
924.849	10880.5
924.956	11447
925.064	10911.8
925.172	10786.4
925.279	10864.1
925.387	11199.1
925.494	11112.2
925.602	11641.1
925.709	11597.8
925.816	11129.8
925.924	11303.6
926.031	11635.2
926.138	11501.1
926.245	11820.6
926.352	11265.6
926.459	11756
926.566	11842.8
926.673	11461.2
926.779	11297.6
926.886	11303.3
926.993	10944
927.099	10873.9
927.206	10838.2
927.312	10770.7
927.419	11220.8
927.525	11084.5
927.631	11231.4
927.737	10953.3
927.843	10866.4
927.95	10602
928.056	10849.4
928.162	10934
928.267	11101.3
928.373	14378.7
928.479	11359.8
928.585	10702.4
928.69	11206.7
928.796	11202.4
928.901	10957
929.007	10586.8
929.112	11010.2
929.218	10928
929.323	10987.7
929.428	10742.1
929.533	11486.6
929.638	10784.4
929.743	11072.5
929.848	11167.8
929.953	11028.9
930.058	10750
930.163	10368.5
930.267	10542.2
930.372	11049.9
930.477	10446.3
930.581	11227.2
930.685	10932.9
930.79	10530.1
930.894	10811.6
930.998	10668.7
931.103	11638.3
931.207	10246.2
931.311	10127.6
931.415	10061.4
931.519	9680.2
931.623	10000.4
