Data from water3s10a_V78500241_4.txt Node
Date: Fri Aug 28 11:38:59 CST 2020
User: usil
Spectrometer: V785-0024
Trigger mode: 0
Integration Time (sec): 3.000000E0
Scans to average: 10
Nonlinearity correction enabled: false
Boxcar width: 0
Storing dark spectrum: false
XAxis mode: Wavelengths
Number of Pixels in Spectrum: 1024
>>>>>Begin Spectral Data<<<<<
801.071	44983.1
801.214	44969.4
801.356	44832.8
801.499	44878.1
801.641	44776.2
801.783	44896
801.926	45207.8
802.068	45073.2
802.211	45064.1
802.353	45025.4
802.496	44646.3
802.638	44816.1
802.78	45041.9
802.923	45270.4
803.065	45138.2
803.208	45324.3
803.35	45358.8
803.492	45380.3
803.635	45274.9
803.777	44641.2
803.919	45014.2
804.061	46363.8
804.204	45345.3
804.346	45223.6
804.488	45146.7
804.63	45730.4
804.773	45332
804.915	45369.2
805.057	45746.3
805.199	45281.8
805.341	45480.4
805.483	45693.4
805.626	45789.3
805.768	45645.6
805.91	46092.8
806.052	46491.7
806.194	46422.8
806.336	47376.2
806.478	47282.3
806.62	47848.8
806.762	48594.7
806.904	49057.1
807.046	49123.9
807.188	48058.4
807.33	47385.7
807.472	47028.9
807.614	45962.8
807.756	45772.1
807.898	45526.9
808.04	46302.8
808.182	47386.1
808.324	48120.1
808.465	48109.3
808.607	47635.4
808.749	46783.4
808.891	46216.6
809.033	46302.9
809.174	46241.4
809.316	46186.8
809.458	46521.6
809.6	46135.6
809.741	46114.2
809.883	45989.7
810.025	46173.8
810.166	45620.1
810.308	44877.1
810.45	43928.9
810.591	42989
810.733	42577.3
810.875	42910.4
811.016	43214.7
811.158	43128.4
811.299	43004.7
811.441	42948.6
811.582	42728.8
811.724	42611.1
811.865	42856
812.007	43517.1
812.148	44167.4
812.29	44936.1
812.431	45563.3
812.573	46144.6
812.714	46785.3
812.855	47385.6
812.997	47395.2
813.138	47722.8
813.279	47155.6
813.421	46563.6
813.562	45349.5
813.703	44012.1
813.845	43389.5
813.986	42289.5
814.127	41765.5
814.268	41562.1
814.41	41454.7
814.551	41009.6
814.692	41019.9
814.833	40072.7
814.974	39572
815.115	39244.6
815.256	38270
815.397	37792.7
815.539	37391.4
815.68	36669.5
815.821	36682.8
815.962	36990.8
816.103	36417.9
816.244	35776.5
816.385	35592.8
816.526	35856
816.666	35574.9
816.807	35358.1
816.948	36013.6
817.089	36284.3
817.23	35798.4
817.371	35438.1
817.512	35490.8
817.653	35620.1
817.793	35316.1
817.934	35104.3
818.075	35346.2
818.216	35240.1
818.356	35328.3
818.497	35225.6
818.638	35159
818.778	35535.4
818.919	35874.6
819.06	36316.4
819.2	36803
819.341	36800.7
819.481	36666.2
819.622	37004
819.762	37515.2
819.903	37069.2
820.043	36616.2
820.184	36249.3
820.324	35904.4
820.465	35712
820.605	35068.3
820.746	34941.6
820.886	34452
821.026	35068.4
821.167	34361.8
821.307	34270.9
821.447	33590.8
821.588	32809.2
821.728	32317.6
821.868	31675.4
822.008	30924.8
822.149	30747.3
822.289	30677
822.429	29900.6
822.569	29494.7
822.709	29366.9
822.849	28622.3
822.99	28346
823.13	28198
823.27	28154.3
823.41	27787.1
823.55	27682.8
823.69	27501.1
823.83	27530.1
823.97	27233
824.11	26903
824.25	26651.8
824.389	26681.7
824.529	26682.9
824.669	26345.4
824.809	26675.3
824.949	26791.2
825.089	26670
825.228	26436.2
825.368	25756.8
825.508	25651.5
825.648	25548.8
825.787	25478.3
825.927	25581.1
826.067	25346.5
826.206	25162.5
826.346	25311
826.485	25172.4
826.625	25163.2
826.765	25785
826.904	25481.1
827.044	24740
827.183	24716.3
827.323	24359.6
827.462	24649.6
827.601	24474.6
827.741	24484.2
827.88	24744.8
828.02	24333.5
828.159	24510.2
828.298	24591.5
828.437	24777.1
828.577	24360.5
828.716	24975.3
828.855	24592.1
828.994	24085.6
829.134	24149.3
829.273	24217.4
829.412	24082.1
829.551	23937.7
829.69	24034.8
829.829	24347.5
829.968	24715.9
830.107	24465.9
830.246	24426.5
830.385	24109
830.524	23957.7
830.663	23616.8
830.802	23482.7
830.941	23247.8
831.08	23208.1
831.219	23419.7
831.357	23340.1
831.496	24118.2
831.635	23092
831.774	22904.5
831.913	22845.3
832.051	22443.4
832.19	22390.3
832.329	22600.9
832.467	22241.2
832.606	22072.4
832.744	22244.4
832.883	22293.1
833.022	22210.4
833.16	22378.7
833.299	22418.3
833.437	22428.9
833.576	22508.3
833.714	22497.2
833.852	22633.7
833.991	22568.9
834.129	22692.3
834.267	22582.7
834.406	22521.6
834.544	22619.5
834.682	22678.5
834.821	22677.3
834.959	23694.2
835.097	22720.4
835.235	23191
835.373	22961.2
835.511	22938.8
835.65	22632.1
835.788	22983.6
835.926	22449.6
836.064	22309.4
836.202	22395
836.34	23144.9
836.478	23333.3
836.615	23129
836.753	23413.5
836.891	23678.8
837.029	23587.3
837.167	23559.7
837.305	23504.3
837.443	23520.8
837.58	23457.8
837.718	23869.7
837.856	23748.5
837.993	23649.9
838.131	23906.1
838.269	23862.9
838.406	23936.8
838.544	23875.1
838.681	23340.9
838.819	23172.3
838.956	22766.5
839.094	22782.8
839.231	22863.9
839.369	23205.7
839.506	24156.1
839.643	23595
839.781	22849.2
839.918	22688.3
840.055	22936.8
840.193	22852.4
840.33	22812.7
840.467	22873.5
840.604	23010.2
840.742	24214.9
840.879	22613.6
841.016	22791.1
841.153	22753.9
841.29	23383
841.427	23004.2
841.564	23078.8
841.701	22983.3
841.838	22742.9
841.975	22601.3
842.112	22704.1
842.249	22283.9
842.385	22229.9
842.522	23442.1
842.659	22425.2
842.796	22273.9
842.933	22329.7
843.069	22458.3
843.206	22318.7
843.343	22633.9
843.479	22560.6
843.616	22727.9
843.752	22029.1
843.889	22140.6
844.025	23066.2
844.162	22173.4
844.298	22680.8
844.435	22333.6
844.571	22299.9
844.708	22781
844.844	23013.2
844.98	23096.1
845.117	23123.5
845.253	22592.8
845.389	22467.7
845.525	22704
845.661	22660.3
845.798	22475.7
845.934	22651.8
846.07	22409.4
846.206	22760.9
846.342	23054.8
846.478	22721.5
846.614	22235.7
846.75	21978
846.886	21841.4
847.022	22378
847.158	21992.8
847.294	21950.3
847.429	21961.4
847.565	21769.3
847.701	23436.9
847.837	21233.5
847.972	21095.7
848.108	21720.8
848.244	21569.7
848.379	20868.6
848.515	20648.6
848.65	20564.5
848.786	20723.3
848.921	20697.7
849.057	20993.7
849.192	21030.7
849.328	20806.3
849.463	20812.4
849.598	20615.9
849.734	20558.3
849.869	20385.8
850.004	20133.9
850.14	20273.5
850.275	20181.6
850.41	19992.7
850.545	20017.1
850.68	20001.4
850.815	20065.8
850.95	20045.2
851.085	20700.8
851.22	20355.1
851.355	20179.5
851.49	19967.3
851.625	19851
851.76	19835.8
851.895	19622.1
852.03	19566.6
852.165	19857.4
852.299	20077.2
852.434	20418
852.569	19985.8
852.703	20109.6
852.838	20254.2
852.973	20538.7
853.107	20436.1
853.242	19998.1
853.376	19818.9
853.511	19373.7
853.645	19725.1
853.78	20368.8
853.914	19843.7
854.048	19742.2
854.183	19610.8
854.317	19911.6
854.451	20404.7
854.585	19749.1
854.72	19612.2
854.854	20193.8
854.988	19505
855.122	19908.4
855.256	19316
855.39	19739.8
855.524	19977.2
855.658	19866.8
855.792	19973.7
855.926	19978.3
856.06	19968.2
856.194	20123.2
856.327	19746.3
856.461	19692.6
856.595	19764
856.729	19777.7
856.862	20173.1
856.996	19830.3
857.13	20176.1
857.263	20252.1
857.397	20254.9
857.53	19876
857.664	20089.7
857.797	20184.1
857.931	20207.3
858.064	20105.6
858.197	20404.5
858.331	20011.4
858.464	19744.3
858.597	19611.6
858.731	20050.3
858.864	19914.1
858.997	19920.8
859.13	20129.9
859.263	20138.2
859.396	20421.5
859.529	19968.1
859.662	20039.9
859.795	19821.5
859.928	20180.1
860.061	20598.8
860.194	20699.8
860.327	20335.5
860.46	20099.2
860.592	20444.7
860.725	20495.1
860.858	20433.8
860.99	19975.9
861.123	19897.7
861.256	19903.7
861.388	20136.3
861.521	27672.4
861.653	19846.8
861.786	19681.9
861.918	19795.3
862.05	19933.7
862.183	20167.5
862.315	20259
862.447	20424
862.58	20217.6
862.712	19718.1
862.844	19567.7
862.976	19991.3
863.108	19933.8
863.24	23885.6
863.372	19626.5
863.504	19903
863.636	19861.1
863.768	20190.5
863.9	20022.9
864.032	19823.9
864.164	19863.3
864.296	20105.5
864.428	20299.8
864.559	20355.6
864.691	20372.3
864.823	20414.3
864.954	20395.7
865.086	20475.1
865.217	20363.6
865.349	20268.2
865.48	20448.9
865.612	20607.1
865.743	21151.6
865.875	20542.1
866.006	20407.5
866.137	20675.4
866.269	20583.1
866.4	20538.3
866.531	20516.3
866.662	20533.4
866.793	20596.2
866.924	20726.7
867.055	20908.9
867.186	20875.5
867.317	20765.3
867.448	20650
867.579	21040.6
867.71	20976.3
867.841	20994.4
867.972	21284.2
868.103	21227.2
868.233	21348.3
868.364	21418.1
868.495	21575.9
868.625	22106.2
868.756	22649.6
868.886	22027.4
869.017	22376
869.147	22913.8
869.278	22729.6
869.408	22481.1
869.539	22462.7
869.669	22920.1
869.799	22710.1
869.929	22948.2
870.06	23084
870.19	23906.2
870.32	23737.6
870.45	23936
870.58	24278.5
870.71	24454.6
870.84	24392.6
870.97	24169
871.1	24104.4
871.23	24939.6
871.36	25050
871.489	24734.5
871.619	24996.7
871.749	25058.7
871.879	25267.1
872.008	25662.9
872.138	25217
872.267	25220
872.397	25023.3
872.526	24961.5
872.656	24874.1
872.785	25165.4
872.915	25792.6
873.044	26076.9
873.173	25932.3
873.303	26206.6
873.432	26392.1
873.561	26676
873.69	26414.3
873.819	26377.1
873.948	26677.6
874.077	26755.9
874.206	26749.6
874.335	26908.1
874.464	27509.6
874.593	28165.2
874.722	27981.6
874.851	28415.7
874.979	28433.5
875.108	28615.2
875.237	28502.2
875.365	28257.7
875.494	28592.5
875.623	29205.2
875.751	28829.9
875.88	29201.3
876.008	29524.2
876.136	29772.6
876.265	30323.6
876.393	30903.8
876.521	30838.3
876.65	30943.1
876.778	30856.6
876.906	30691.6
877.034	30757.6
877.162	30953.3
877.29	30795.7
877.418	31180
877.546	31380.2
877.674	31644.4
877.802	31644.3
877.93	31637
878.058	31559.4
878.185	31499.7
878.313	31884.8
878.441	31996.9
878.568	31652.7
878.696	31884
878.824	32161.6
878.951	32287.9
879.079	32522.9
879.206	32748.3
879.333	32275.3
879.461	31977.8
879.588	32031.1
879.715	32145
879.842	32780.3
879.97	31804.3
880.097	30926
880.224	30827
880.351	30902.3
880.478	30854.3
880.605	30859.8
880.732	30728.2
880.859	31687.1
880.986	30747.5
881.112	30899.7
881.239	30577.4
881.366	30114.4
881.493	29898.4
881.619	29664.3
881.746	29697.8
881.872	29732.4
881.999	29635.7
882.125	29723.7
882.252	29891
882.378	29837.8
882.505	30213.6
882.631	29594.4
882.757	29287.1
882.883	29497.6
883.01	29280.8
883.136	29103.8
883.262	28833.1
883.388	28708.6
883.514	29171.3
883.64	29205.8
883.766	29262.6
883.892	28728.6
884.018	28774.3
884.143	29122.2
884.269	29604.5
884.395	28517.9
884.52	28139.9
884.646	28271
884.772	28103.2
884.897	27899.9
885.023	28106.8
885.148	28470
885.274	28691.4
885.399	28482.2
885.524	28124.1
885.65	28146.8
885.775	28167
885.9	28080.4
886.025	28358.9
886.15	28132.2
886.275	27767.6
886.4	27566.8
886.525	27839.2
886.65	27648.8
886.775	27657.2
886.9	28245.5
887.025	28433.9
887.149	27796.9
887.274	27298.4
887.399	27226.1
887.523	27243.4
887.648	27039.8
887.773	26970.5
887.897	27579.6
888.021	27558.3
888.146	27217.8
888.27	27937.9
888.395	28011.2
888.519	27444.2
888.643	27350.2
888.767	27409.9
888.891	26963.7
889.015	26668
889.139	26883.4
889.263	26729.4
889.387	27142.9
889.511	27364.8
889.635	27211
889.759	26685.3
889.883	26682.8
890.006	26776.6
890.13	27142.2
890.254	26652.5
890.377	26727
890.501	26218.6
890.624	26172.4
890.748	26494.5
890.871	26006.8
890.995	25780.9
891.118	25664.9
891.241	26007.1
891.364	26056.9
891.488	26337.9
891.611	25958.8
891.734	26021
891.857	26084.9
891.98	25926.1
892.103	26308.9
892.226	26066.5
892.349	26180.8
892.471	25478.8
892.594	25892.7
892.717	25934.5
892.839	25785.8
892.962	25941.2
893.085	26174.3
893.207	25837.2
893.33	25400.4
893.452	25416.4
893.575	25885.3
893.697	25564.3
893.819	26105.2
893.941	26330.9
894.064	26261.9
894.186	25649.6
894.308	25494
894.43	26107.5
894.552	26430.3
894.674	26313.8
894.796	25531.6
894.918	25691.6
895.04	25503.9
895.161	25718.5
895.283	25667.5
895.405	25285.9
895.526	25446.7
895.648	25461.6
895.769	25546.8
895.891	25661.4
896.012	25891.1
896.134	25621.4
896.255	25441.1
896.376	25210.7
896.498	25363.1
896.619	25357.3
896.74	25155.5
896.861	25439.3
896.982	26208.3
897.103	26505.3
897.224	25900.5
897.345	25495.1
897.466	25312.8
897.587	25479.8
897.708	25768.3
897.828	25431.1
897.949	25311.7
898.07	24928.1
898.19	25126.7
898.311	25627.9
898.431	25127.6
898.552	25340.2
898.672	25711.2
898.792	25629.7
898.913	25508.9
899.033	25088.2
899.153	24729.2
899.273	24472.4
899.393	24715.8
899.513	24956.2
899.633	24814.8
899.753	24945.4
899.873	24773.4
899.993	25074.3
900.113	24869.6
900.232	24986.1
900.352	24825
900.472	24637.2
900.591	24324.4
900.711	24462.2
900.83	24392.1
900.95	24895.1
901.069	25041.9
901.189	24587.2
901.308	24107.8
901.427	24037.2
901.546	24149.8
901.665	24360.9
901.784	24405.4
901.904	24002.9
902.023	23783.4
902.141	23364
902.26	23364.8
902.379	23765.3
902.498	23469.4
902.617	23430.4
902.735	23844.5
902.854	23746.1
902.973	23865.1
903.091	23164.8
903.21	23069.3
903.328	23271.6
903.446	23224.3
903.565	22984.1
903.683	23199.7
903.801	22950.1
903.919	23261.7
904.038	23328.1
904.156	22850.9
904.274	23212.7
904.392	23024.4
904.51	23109.9
904.627	23230.4
904.745	23326.4
904.863	23462.7
904.981	22787.3
905.098	22570
905.216	22758.8
905.334	22852.4
905.451	22814.7
905.569	22780.4
905.686	23065.8
905.803	22943.7
905.921	22518.7
906.038	22848.5
906.155	22684.9
906.272	22286.5
906.389	22427.5
906.506	22164
906.623	22128.1
906.74	22036.8
906.857	21795.8
906.974	21979.7
907.091	22531
907.208	22833.4
907.324	22452.2
907.441	22136.3
907.557	21721.9
907.674	21803.4
907.79	21503.9
907.907	21564.1
908.023	21821.3
908.139	21823.6
908.256	21734.9
908.372	21724.2
908.488	21632
908.604	21353.7
908.72	21165.7
908.836	21487
908.952	21384.7
909.068	21377.7
909.184	21789.3
909.3	21431.3
909.415	21629.9
909.531	21846
909.647	20975.1
909.762	20995.3
909.878	20921.9
909.993	21160.4
910.108	21032
910.224	20882.6
910.339	21279.9
910.454	20942.7
910.57	20713
910.685	20484.1
910.8	21675.2
910.915	21243.7
911.03	20935.4
911.145	20417.8
911.259	20314.8
911.374	20497.2
911.489	20143.5
911.604	20140
911.718	19697.5
911.833	19945.3
911.947	19523.7
912.062	19275.5
912.176	19706.6
912.291	19817.4
912.405	19735.9
912.519	20409.6
912.633	20548.7
912.748	20067
912.862	19917
912.976	19559.4
913.09	19182.7
913.204	19586.1
913.318	19646.6
913.431	19913.1
913.545	20039.9
913.659	20272.9
913.772	20001.5
913.886	19653.4
914	19418.2
914.113	19863.3
914.226	19997.6
914.34	19915.6
914.453	19367.7
914.566	19971.1
914.68	19475.3
914.793	19549.9
914.906	19065.7
915.019	19031.7
915.132	18818.3
915.245	19113.2
915.358	19170.6
915.47	19240.8
915.583	19233.1
915.696	19302.3
915.809	19682.2
915.921	19888.1
916.034	19305.3
916.146	19299.2
916.259	19125.2
916.371	19478.6
916.483	19498.8
916.595	19299.2
916.708	19317.7
916.82	19360
916.932	19105.1
917.044	19288
917.156	19417
917.268	18981.8
917.38	19060.9
917.491	19052.7
917.603	19247.1
917.715	19327.3
917.826	19623.5
917.938	19149.9
918.049	18840.4
918.161	19345.1
918.272	19669.8
918.384	19694.1
918.495	19357
918.606	18889
918.717	18765.2
918.828	19135.2
918.939	19180.4
919.05	18883
919.161	19268.7
919.272	18368.6
919.383	18568.3
919.494	19309.9
919.604	20149.6
919.715	19434.2
919.826	19223
919.936	19602.4
920.047	20058.2
920.157	19608.8
920.267	20694.8
920.378	20049.7
920.488	19884.4
920.598	20936.7
920.708	21347.3
920.818	21001
920.928	21040.7
921.038	21857.4
921.148	21600.5
921.258	20497.2
921.368	20372.9
921.477	19814.3
921.587	19690.6
921.697	19103.3
921.806	19529.8
921.916	19037.3
922.025	18397
922.134	18280.6
922.244	18162
922.353	18449.2
922.462	17993.3
922.571	18008
922.68	17534.6
922.789	17383.1
922.898	17673
923.007	17293
923.116	17609
923.224	17520
923.333	17568.4
923.442	17304.4
923.55	17160.5
923.659	17240.3
923.767	17473.6
923.876	17119.6
923.984	17381.2
924.092	16993.1
924.201	17303.6
924.309	17291.4
924.417	17423.2
924.525	17043.6
924.633	17203.4
924.741	22133
924.849	16728.6
924.956	17277.4
925.064	16710.4
925.172	16534.7
925.279	16575.7
925.387	16912.5
925.494	16766
925.602	17249.9
925.709	17222.6
925.816	16704.3
925.924	16837.9
926.031	17163.2
926.138	16977.2
926.245	17329.9
926.352	16738.6
926.459	17204
926.566	17236.3
926.673	16880.5
926.779	16627.1
926.886	16636.3
926.993	16245.1
927.099	16123.8
927.206	16035.6
927.312	15960.6
927.419	16372.2
927.525	16198.6
927.631	16319
927.737	16014.5
927.843	15838.2
927.95	15558.4
928.056	15818
928.162	15893.6
928.267	16040.1
928.373	18844.2
928.479	16226.4
928.585	15552.7
928.69	16042.4
928.796	15996
928.901	15688.4
929.007	15308.1
929.112	15739.7
929.218	15585.1
929.323	15620.7
929.428	15390.5
929.533	16068.9
929.638	15304.1
929.743	15594.5
929.848	15647.9
929.953	15532.8
930.058	15218.6
930.163	14765.9
930.267	14910.4
930.372	15424.9
930.477	14807.9
930.581	15520.1
930.685	15254
930.79	14748.1
930.894	15030.4
930.998	14876.9
931.103	15801.5
931.207	14343.4
931.311	14178
931.415	14048.6
931.519	13638.4
931.623	13920.9
