Data from water3s10a_V78500241_18.txt Node
Date: Fri Aug 28 11:46:00 CST 2020
User: usil
Spectrometer: V785-0024
Trigger mode: 0
Integration Time (sec): 3.000000E0
Scans to average: 10
Nonlinearity correction enabled: false
Boxcar width: 0
Storing dark spectrum: false
XAxis mode: Wavelengths
Number of Pixels in Spectrum: 1024
>>>>>Begin Spectral Data<<<<<
801.071	44662.6
801.214	44783.6
801.356	44692.4
801.499	44717.2
801.641	44674.1
801.783	44679.1
801.926	44964.9
802.068	44774.3
802.211	44789.4
802.353	44775.7
802.496	44293.3
802.638	44476.7
802.78	44851.7
802.923	45085.2
803.065	44935.9
803.208	45100.3
803.35	45186.7
803.492	45139.8
803.635	45018.1
803.777	44430.8
803.919	44777.4
804.061	46097.9
804.204	44944.2
804.346	44764.7
804.488	44796.6
804.63	45423.4
804.773	45056.1
804.915	45178.2
805.057	45571.2
805.199	45046
805.341	45340.6
805.483	45436.8
805.626	45449.3
805.768	45391.9
805.91	45863.9
806.052	46255.6
806.194	46249.6
806.336	47088.4
806.478	46858.1
806.62	47402.1
806.762	48208.2
806.904	48558.4
807.046	48758.5
807.188	47741.2
807.33	47113.8
807.472	46772.8
807.614	45688.6
807.756	45378.8
807.898	45151.3
808.04	45929
808.182	47070.4
808.324	47769.6
808.465	47847
808.607	47360.3
808.749	46438.7
808.891	45964.7
809.033	46019.2
809.174	45958.7
809.316	45841
809.458	46105.2
809.6	45738.9
809.741	45659.6
809.883	45584.1
810.025	45975.8
810.166	45280.2
810.308	44511.7
810.45	43595.8
810.591	42641.2
810.733	42173.2
810.875	42523.4
811.016	42885.2
811.158	42800.4
811.299	42663.5
811.441	42643.5
811.582	42439.6
811.724	42409.7
811.865	42571.2
812.007	43296.8
812.148	43902.4
812.29	44589.4
812.431	45305.7
812.573	45875.6
812.714	46453.7
812.855	47062.1
812.997	47069.1
813.138	47418.4
813.279	46903.3
813.421	46282
813.562	45096
813.703	43746.8
813.845	43087.9
813.986	41954.1
814.127	41486.2
814.268	41291.7
814.41	41236.6
814.551	40720.6
814.692	40791.5
814.833	39856.4
814.974	39319
815.115	38982.7
815.256	38085.6
815.397	37535.7
815.539	37190.2
815.68	36482
815.821	36436.8
815.962	36753.6
816.103	36168
816.244	35505.2
816.385	35341.5
816.526	35559.6
816.666	35331.3
816.807	35150.9
816.948	35707.1
817.089	35973.1
817.23	35602.6
817.371	35222.9
817.512	35220
817.653	35301.4
817.793	35040.5
817.934	34852.2
818.075	35135.4
818.216	34944.5
818.356	35021.3
818.497	34967.2
818.638	34876.5
818.778	35250.2
818.919	35617
819.06	36042.9
819.2	36455.8
819.341	36515
819.481	36404.7
819.622	36690
819.762	37192.3
819.903	36737.2
820.043	36287.2
820.184	35904
820.324	35543.7
820.465	35361.4
820.605	34786
820.746	34644.2
820.886	34176.1
821.026	34741.1
821.167	34021.5
821.307	33907.2
821.447	33238.8
821.588	32550.8
821.728	32003.3
821.868	31411.7
822.008	30647.6
822.149	30480
822.289	30388.1
822.429	29598.6
822.569	29230.5
822.709	29040.8
822.849	28287.8
822.99	28083.5
823.13	27865.1
823.27	27875.7
823.41	27491
823.55	27395.6
823.69	27219.6
823.83	27288.6
823.97	26984.7
824.11	26606.7
824.25	26399.1
824.389	26382.7
824.529	26424.6
824.669	26087.7
824.809	26461.5
824.949	26517.3
825.089	26461.9
825.228	26189.9
825.368	25513
825.508	25352.4
825.648	25270.9
825.787	25219.3
825.927	25302.9
826.067	25072
826.206	24824.3
826.346	25086.1
826.485	24899.5
826.625	24910.1
826.765	25497.4
826.904	25202.5
827.044	24513.5
827.183	24464.1
827.323	24056.2
827.462	24392.5
827.601	24233.5
827.741	24182.5
827.88	24430.4
828.02	24087.8
828.159	24296
828.298	24296.5
828.437	24417.2
828.577	24074.7
828.716	24657.6
828.855	24289.9
828.994	23844.7
829.134	23834.8
829.273	23934.1
829.412	23762.5
829.551	23625.1
829.69	23775.3
829.829	24097.3
829.968	24419.3
830.107	24156.6
830.246	24166.7
830.385	23849.9
830.524	23698.5
830.663	23423
830.802	23231.4
830.941	22992.8
831.08	22926.5
831.219	23146.1
831.357	23028.1
831.496	23791.7
831.635	22832.5
831.774	22640
831.913	22615.4
832.051	22192.6
832.19	22181.9
832.329	22346.8
832.467	22040.7
832.606	21811.7
832.744	22001.3
832.883	22023.9
833.022	21924.5
833.16	22102.2
833.299	22160.3
833.437	22230.1
833.576	22183.5
833.714	22221.5
833.852	22394.3
833.991	22369.2
834.129	22406.9
834.267	22359.7
834.406	22272.1
834.544	22304.6
834.682	22426.3
834.821	22427.9
834.959	23438.4
835.097	22479.9
835.235	22981.2
835.373	22675.7
835.511	22616.2
835.65	22334.1
835.788	22718
835.926	22205.2
836.064	22093.3
836.202	22153.5
836.34	22931.5
836.478	23072.4
836.615	22872.8
836.753	23149.4
836.891	23438.7
837.029	23323.4
837.167	23294.1
837.305	23253.4
837.443	23252.2
837.58	23231.8
837.718	23653.6
837.856	23516.5
837.993	23423
838.131	23691.4
838.269	23623.7
838.406	23695
838.544	23649.5
838.681	23124.1
838.819	22996.2
838.956	22516.5
839.094	22502.4
839.231	22599.4
839.369	22964.5
839.506	23919.6
839.643	23355.6
839.781	22598.6
839.918	22413.7
840.055	22674.8
840.193	22629
840.33	22544.3
840.467	22613.8
840.604	22741.4
840.742	23935.8
840.879	22380.5
841.016	22486.7
841.153	22503.1
841.29	23096.8
841.427	22765.9
841.564	22833.4
841.701	22732.5
841.838	22486.9
841.975	22282.5
842.112	22350.1
842.249	21974
842.385	21982.2
842.522	23109.2
842.659	22135.5
842.796	22022.1
842.933	22084.1
843.069	22225.4
843.206	22093.4
843.343	22385.2
843.479	22293.1
843.616	22427.4
843.752	21754.7
843.889	21871.5
844.025	22773.6
844.162	21919.8
844.298	22443.4
844.435	22083.1
844.571	22049.5
844.708	22485.6
844.844	22768.8
844.98	22808.2
845.117	22867.5
845.253	22401.9
845.389	22230.3
845.525	22449.5
845.661	22376.4
845.798	22236.9
845.934	22405
846.07	22167.5
846.206	22516.1
846.342	22740.1
846.478	22452
846.614	21955.2
846.75	21747.5
846.886	21594.5
847.022	22127
847.158	21785.5
847.294	21696.7
847.429	21746.4
847.565	21511.5
847.701	23169.5
847.837	20939.8
847.972	20815.4
848.108	21473.2
848.244	21307.7
848.379	20651.2
848.515	20331.4
848.65	20297.8
848.786	20485.7
848.921	20457.7
849.057	20759.8
849.192	20788.8
849.328	20534.5
849.463	20579.9
849.598	20373.6
849.734	20321.2
849.869	20136.2
850.004	19874.3
850.14	19988.5
850.275	19888.9
850.41	19732.7
850.545	19747.7
850.68	19734.4
850.815	19843.4
850.95	19787.3
851.085	20439.9
851.22	20102
851.355	19948.9
851.49	19723.4
851.625	19601
851.76	19557.1
851.895	19379.5
852.03	19317.5
852.165	19567
852.299	19796
852.434	20152.1
852.569	19745.2
852.703	19882.2
852.838	19976
852.973	20290.2
853.107	20144.8
853.242	19726.4
853.376	19580.4
853.511	19106.7
853.645	19494.6
853.78	20130.1
853.914	19570.5
854.048	19517.1
854.183	19389.2
854.317	19610.4
854.451	20130.5
854.585	19530.9
854.72	19335.7
854.854	19957.7
854.988	19223.5
855.122	19615.8
855.256	19087.6
855.39	19480.2
855.524	19718.4
855.658	19617.7
855.792	19691.7
855.926	19721.5
856.06	19758.2
856.194	19881.6
856.327	19518.3
856.461	19454
856.595	19517.5
856.729	19541.2
856.862	19950.2
856.996	19588.3
857.13	19960.8
857.263	20006.1
857.397	20011.7
857.53	19641.3
857.664	19834.8
857.797	19934.9
857.931	19962.7
858.064	19807.6
858.197	20163.2
858.331	19697.4
858.464	19514.5
858.597	19372.6
858.731	19791.3
858.864	19710.8
858.997	19703.7
859.13	19907.1
859.263	19866.7
859.396	20155.2
859.529	19727.7
859.662	19796
859.795	19616.2
859.928	19940.2
860.061	20371.3
860.194	20421.5
860.327	20012.9
860.46	19858.8
860.592	20217.8
860.725	20211.5
860.858	20243.4
860.99	19713.3
861.123	19633.7
861.256	19666.6
861.388	19904
861.521	25462.8
861.653	19604.6
861.786	19430.5
861.918	19506.2
862.05	19685
862.183	19888.8
862.315	19951.9
862.447	20170.4
862.58	19939.5
862.712	19515.7
862.844	19371.9
862.976	19710.7
863.108	19686.5
863.24	23556.1
863.372	19385.2
863.504	19692.3
863.636	19563.3
863.768	19949.7
863.9	19839.1
864.032	19575.4
864.164	19613.1
864.296	19883.1
864.428	20077
864.559	20105.8
864.691	20173.5
864.823	20152.5
864.954	20155.5
865.086	20242.4
865.217	20111.1
865.349	20024.7
865.48	20218
865.612	20368.7
865.743	20893.6
865.875	20350.8
866.006	20154
866.137	20434.4
866.269	20292.8
866.4	20287.1
866.531	20324.7
866.662	20278.4
866.793	20333.2
866.924	20436.8
867.055	20659.3
867.186	20606.8
867.317	20521.6
867.448	20425
867.579	20803.6
867.71	20740.3
867.841	20743.1
867.972	21045.1
868.103	21007.1
868.233	21142.7
868.364	21151.3
868.495	21368.9
868.625	21879.1
868.756	22427.3
868.886	21833.4
869.017	22103.7
869.147	22688
869.278	22509.7
869.408	22309.4
869.539	22256.3
869.669	22660.5
869.799	22508.4
869.929	22746.2
870.06	22909.5
870.19	23734.6
870.32	23466.4
870.45	23682.6
870.58	23989.7
870.71	24174.5
870.84	24107.2
870.97	23916.9
871.1	23809
871.23	24691.1
871.36	24816.3
871.489	24494.8
871.619	24769.8
871.749	24877.7
871.879	25010.7
872.008	25390
872.138	25001.6
872.267	25000.4
872.397	24798.8
872.526	24761.1
872.656	24690.7
872.785	24942.7
872.915	25574.2
873.044	25869.6
873.173	25678.8
873.303	25955.8
873.432	26178.9
873.561	26400.9
873.69	26225.6
873.819	26158.7
873.948	26470.3
874.077	26537.2
874.206	26521.1
874.335	26732
874.464	27244.7
874.593	27903.5
874.722	27750.9
874.851	28185.1
874.979	28233.5
875.108	28355.2
875.237	28223.8
875.365	28065.1
875.494	28372.8
875.623	28926.3
875.751	28566.3
875.88	28976.6
876.008	29334.7
876.136	29530.3
876.265	30133.4
876.393	30656.8
876.521	30599.9
876.65	30631.4
876.778	30639.8
876.906	30500.2
877.034	30484.1
877.162	30696.3
877.29	30683.1
877.418	31006.9
877.546	31141.6
877.674	31456.8
877.802	31419.4
877.93	31391.9
878.058	31385.4
878.185	31295.5
878.313	31646.5
878.441	31788.1
878.568	31439.3
878.696	31695.9
878.824	31954.1
878.951	32027.2
879.079	32247.6
879.206	32557.3
879.333	32065.4
879.461	31757.6
879.588	31784.2
879.715	31910.3
879.842	32520.4
879.97	31589.1
880.097	30725.5
880.224	30583.5
880.351	30699.5
880.478	30603.2
880.605	30543.2
880.732	30526.7
880.859	31425
880.986	30535.6
881.112	30737.6
881.239	30355.2
881.366	29862.5
881.493	29703.2
881.619	29408.3
881.746	29502.2
881.872	29521.5
881.999	29423.7
882.125	29424.8
882.252	29690.6
882.378	29672.6
882.505	29900.2
882.631	29355.6
882.757	29080.7
882.883	29288
883.01	29020.9
883.136	28883.2
883.262	28616.5
883.388	28518.8
883.514	28909.2
883.64	28958.8
883.766	29056.2
883.892	28513
884.018	28499
884.143	28874.4
884.269	29332.5
884.395	28319.6
884.52	27928.1
884.646	28042.5
884.772	27902.4
884.897	27700.5
885.023	27927.8
885.148	28282.3
885.274	28429
885.399	28262.2
885.524	27892.4
885.65	27991.6
885.775	27949.9
885.9	27901.1
886.025	28104.6
886.15	27929.3
886.275	27543.9
886.4	27306.9
886.525	27620.9
886.65	27459
886.775	27417.3
886.9	28016.6
887.025	28234.1
887.149	27559.1
887.274	27075.8
887.399	27038.6
887.523	26975.9
887.648	26802.3
887.773	26777.7
887.897	27355.2
888.021	27327.1
888.146	27013.5
888.27	27722
888.395	27740.9
888.519	27209.8
888.643	27132.2
888.767	27211.4
888.891	26776.1
889.015	26519.6
889.139	26680.2
889.263	26511.8
889.387	26972.4
889.511	27128.3
889.635	27003.1
889.759	26473.1
889.883	26467.3
890.006	26577.6
890.13	26938.9
890.254	26386.5
890.377	26497.7
890.501	26064.8
890.624	25948.9
890.748	26249.6
890.871	25805.9
890.995	25609.8
891.118	25466.2
891.241	25785.4
891.364	25882.7
891.488	26108.3
891.611	25748.5
891.734	25766
891.857	25869.9
891.98	25746.3
892.103	26044.9
892.226	25830
892.349	25988.9
892.471	25291.1
892.594	25622.2
892.717	25707.8
892.839	25520.8
892.962	25753.2
893.085	25957
893.207	25637.3
893.33	25158
893.452	25233.7
893.575	25653.1
893.697	25397.3
893.819	25922.1
893.941	26088.9
894.064	26061.3
894.186	25419.7
894.308	25280.2
894.43	25853.1
894.552	26224.1
894.674	26031.9
894.796	25283.2
894.918	25500.9
895.04	25249.7
895.161	25496.3
895.283	25472.2
895.405	25035.1
895.526	25251.3
895.648	25250.5
895.769	25333.4
895.891	25445.3
896.012	25666.3
896.134	25373
896.255	25221.9
896.376	25002.8
896.498	25168.6
896.619	25180.5
896.74	24984.4
896.861	25250.8
896.982	25958.2
897.103	26315.7
897.224	25647.2
897.345	25268.3
897.466	25124.2
897.587	25223
897.708	25532
897.828	25266.8
897.949	25076.2
898.07	24716.7
898.19	24921.7
898.311	25405.9
898.431	24953.5
898.552	25174.8
898.672	25454.9
898.792	25420.9
898.913	25260.8
899.033	24843
899.153	24511.9
899.273	24325.8
899.393	24536.1
899.513	24752.2
899.633	24617.6
899.753	24725.5
899.873	24601.6
899.993	24894.3
900.113	24677.8
900.232	24773.8
900.352	24683.9
900.472	24426.5
900.591	24134.2
900.711	24264.6
900.83	24179.8
900.95	24712.5
901.069	24825.8
901.189	24372.6
901.308	23905.9
901.427	23827.9
901.546	23941.2
901.665	24111.2
901.784	24178.1
901.904	23821.3
902.023	23613
902.141	23170
902.26	23181.5
902.379	23556.4
902.498	23309.6
902.617	23226
902.735	23657.4
902.854	23550
902.973	23694.6
903.091	22963.4
903.21	22949.2
903.328	23091
903.446	22986.8
903.565	22816.3
903.683	22999.9
903.801	22758.6
903.919	23035.4
904.038	23139.5
904.156	22670.4
904.274	23011.4
904.392	22883.5
904.51	22882.9
904.627	23002.6
904.745	23125.1
904.863	23265.6
904.981	22621
905.098	22387.4
905.216	22619.8
905.334	22599
905.451	22670.5
905.569	22579.1
905.686	22877.5
905.803	22782.3
905.921	22313.3
906.038	22636.4
906.155	22508.8
906.272	22094.1
906.389	22225.2
906.506	21968.7
906.623	21913
906.74	21865.1
906.857	21599.7
906.974	21783.7
907.091	22403.4
907.208	22636.6
907.324	22288.1
907.441	21951.7
907.557	21547.7
907.674	21598.3
907.79	21346.3
907.907	21385.6
908.023	21642.6
908.139	21593.9
908.256	21512.3
908.372	21527.2
908.488	21441.5
908.604	21203.7
908.72	20966.9
908.836	21289.5
908.952	21209.9
909.068	21146
909.184	21598.1
909.3	21251
909.415	21428.6
909.531	21630
909.647	20726.4
909.762	20810.8
909.878	20760.9
909.993	21006.3
910.108	20843
910.224	20701.6
910.339	21075.5
910.454	20710.3
910.57	20518.5
910.685	20323.3
910.8	21509.4
910.915	20982.4
911.03	20749
911.145	20269
911.259	20154.7
911.374	20313.4
911.489	19955.5
911.604	19927.4
911.718	19527.4
911.833	19743.6
911.947	19320.3
912.062	19073.2
912.176	19528.3
912.291	19585.3
912.405	19565.9
912.519	20195.6
912.633	20342.9
912.748	19853.5
912.862	19787.3
912.976	19379.9
913.09	19019.9
913.204	19440
913.318	19461.7
913.431	19730.2
913.545	19908.3
913.659	20107.4
913.772	19784
913.886	19521
914	19264.8
914.113	19701
914.226	19811.2
914.34	19681.9
914.453	19230.2
914.566	19786.1
914.68	19280.5
914.793	19346.2
914.906	18880.7
915.019	18833.4
915.132	18666.6
915.245	18938.9
915.358	19015.3
915.47	19090.2
915.583	19059.5
915.696	19147.7
915.809	19537.6
915.921	19688.7
916.034	19107.6
916.146	19090.8
916.259	18962.3
916.371	19288.9
916.483	19307
916.595	19104.4
916.708	19172.6
916.82	19179.4
916.932	18957.5
917.044	19112
917.156	19224.9
917.268	18832.1
917.38	18914.3
917.491	18875
917.603	19050
917.715	19150
917.826	19420
917.938	18985.3
918.049	18725.9
918.161	19174.3
918.272	19442.6
918.384	19519.9
918.495	19170.4
918.606	18723.5
918.717	18614.2
918.828	18909.1
918.939	18996.2
919.05	18683.4
919.161	19043.1
919.272	18200.7
919.383	18381.5
919.494	19145.9
919.604	19956
919.715	19220.2
919.826	19037.2
919.936	19389
920.047	19917.7
920.157	19439.3
920.267	20542
920.378	19848.1
920.488	19698.2
920.598	20767.8
920.708	21157.3
920.818	20763.5
920.928	20838.8
921.038	21657.3
921.148	21379.3
921.258	20278.8
921.368	20211.3
921.477	19675.4
921.587	19505.7
921.697	18928.6
921.806	19308
921.916	18880.6
922.025	18208.4
922.134	18067.1
922.244	17992.6
922.353	18240
922.462	17836.4
922.571	17826.4
922.68	17326.8
922.789	17215.7
922.898	17541.1
923.007	17128.1
923.116	17442.8
923.224	17362.9
923.333	17395
923.442	17111.7
923.55	17043
923.659	17070.1
923.767	17334.1
923.876	17008.1
923.984	17243.5
924.092	16884.2
924.201	17148.8
924.309	17157.8
924.417	17180.9
924.525	16911
924.633	17031.1
924.741	21995.2
924.849	16564.7
924.956	17085.3
925.064	16533.5
925.172	16387.7
925.279	16405.3
925.387	16712
925.494	16633.3
925.602	17124
925.709	17035
925.816	16540
925.924	16670.1
926.031	16995.5
926.138	16850.9
926.245	17139.7
926.352	16571.6
926.459	17022.1
926.566	17097.9
926.673	16724.3
926.779	16454.4
926.886	16470.4
926.993	16036.2
927.099	15935.9
927.206	15901.9
927.312	15767.2
927.419	16193
927.525	16059.4
927.631	16169.9
927.737	15872.2
927.843	15732.3
927.95	15441
928.056	15650
928.162	15762
928.267	15891
928.373	19241.8
928.479	16097.1
928.585	15403.1
928.69	15901.3
928.796	15857.5
928.901	15551.2
929.007	15142
929.112	15571.7
929.218	15463.6
929.323	15470.9
929.428	15227.3
929.533	15918.4
929.638	15173.7
929.743	15452.3
929.848	15504
929.953	15365
930.058	15067.6
930.163	14623.5
930.267	14773.9
930.372	15251.8
930.477	14635.7
930.581	15389.4
930.685	15089.6
930.79	14588.1
930.894	14905.5
930.998	14720.4
931.103	15674.9
931.207	14213.3
931.311	14040.9
931.415	13932.8
931.519	13503.8
931.623	13784.6
